Freq[Hz]	[dBV]	Phase[Deg]
10.00	-58.27	-19.20
10.04	-58.35	-19.78
10.08	-58.42	-20.34
10.11	-58.50	-20.89
10.15	-58.58	-21.42
10.19	-58.65	-21.94
10.23	-58.73	-22.45
10.27	-58.80	-22.94
10.31	-58.87	-23.42
10.34	-58.94	-23.88
10.38	-59.01	-24.32
10.42	-59.08	-24.76
10.46	-59.14	-25.17
10.50	-59.21	-25.58
10.54	-59.27	-25.97
10.58	-59.33	-26.34
10.62	-59.38	-26.70
10.66	-59.44	-27.04
10.70	-59.49	-27.37
10.74	-59.54	-27.68
10.78	-59.59	-27.98
10.82	-59.64	-28.27
10.86	-59.68	-28.54
10.90	-59.72	-28.79
10.95	-59.76	-29.03
10.99	-59.79	-29.26
11.03	-59.83	-29.46
11.07	-59.85	-29.66
11.11	-59.88	-29.84
11.15	-59.90	-30.00
11.20	-59.92	-30.15
11.24	-59.93	-30.28
11.28	-59.94	-30.40
11.32	-59.95	-30.51
11.37	-59.95	-30.60
11.41	-59.95	-30.67
11.45	-59.95	-30.73
11.50	-59.94	-30.77
11.54	-59.92	-30.80
11.58	-59.90	-30.81
11.63	-59.88	-30.81
11.67	-59.85	-30.79
11.71	-59.81	-30.76
11.76	-59.77	-30.72
11.80	-59.73	-30.66
11.85	-59.68	-30.58
11.89	-59.62	-30.49
11.94	-59.56	-30.39
11.98	-59.49	-30.27
12.03	-59.42	-30.14
12.07	-59.35	-29.99
12.12	-59.27	-29.84
12.16	-59.18	-29.67
12.21	-59.09	-29.48
12.26	-59.00	-29.29
12.30	-58.90	-29.09
12.35	-58.80	-28.87
12.39	-58.69	-28.64
12.44	-58.58	-28.40
12.49	-58.46	-28.16
12.54	-58.34	-27.90
12.58	-58.22	-27.63
12.63	-58.09	-27.35
12.68	-57.96	-27.07
12.73	-57.83	-26.78
12.77	-57.69	-26.48
12.82	-57.55	-26.17
12.87	-57.40	-25.85
12.92	-57.25	-25.53
12.97	-57.10	-25.20
13.02	-56.95	-24.87
13.07	-56.80	-24.53
13.12	-56.64	-24.19
13.16	-56.48	-23.84
13.21	-56.31	-23.49
13.26	-56.15	-23.14
13.31	-55.98	-22.79
13.36	-55.81	-22.43
13.41	-55.64	-22.07
13.47	-55.47	-21.71
13.52	-55.30	-21.36
13.57	-55.12	-21.00
13.62	-54.95	-20.64
13.67	-54.77	-20.29
13.72	-54.60	-19.94
13.77	-54.42	-19.59
13.83	-54.24	-19.25
13.88	-54.07	-18.91
13.93	-53.89	-18.57
13.98	-53.72	-18.25
14.04	-53.54	-17.93
14.09	-53.37	-17.61
14.14	-53.19	-17.31
14.19	-53.02	-17.02
14.25	-52.85	-16.73
14.30	-52.68	-16.46
14.36	-52.52	-16.20
14.41	-52.35	-15.95
14.46	-52.19	-15.71
14.52	-52.03	-15.49
14.57	-51.88	-15.29
14.63	-51.73	-15.10
14.68	-51.58	-14.93
14.74	-51.43	-14.78
14.80	-51.29	-14.64
14.85	-51.15	-14.52
14.91	-51.02	-14.42
14.96	-50.89	-14.34
15.02	-50.76	-14.27
15.08	-50.64	-14.21
15.13	-50.52	-14.18
15.19	-50.40	-14.15
15.25	-50.29	-14.15
15.31	-50.18	-14.15
15.36	-50.07	-14.18
15.42	-49.96	-14.21
15.48	-49.86	-14.26
15.54	-49.76	-14.32
15.60	-49.66	-14.40
15.66	-49.57	-14.48
15.71	-49.48	-14.58
15.77	-49.39	-14.69
15.83	-49.30	-14.81
15.89	-49.22	-14.95
15.95	-49.13	-15.09
16.01	-49.05	-15.24
16.07	-48.97	-15.40
16.13	-48.90	-15.57
16.19	-48.82	-15.74
16.26	-48.75	-15.93
16.32	-48.68	-16.12
16.38	-48.61	-16.31
16.44	-48.54	-16.52
16.50	-48.47	-16.73
16.56	-48.40	-16.94
16.63	-48.33	-17.15
16.69	-48.26	-17.37
16.75	-48.20	-17.60
16.82	-48.13	-17.82
16.88	-48.07	-18.04
16.94	-48.00	-18.27
17.01	-47.94	-18.50
17.07	-47.87	-18.72
17.14	-47.81	-18.94
17.20	-47.74	-19.16
17.27	-47.67	-19.38
17.33	-47.61	-19.59
17.40	-47.54	-19.80
17.46	-47.47	-20.01
17.53	-47.40	-20.20
17.59	-47.32	-20.39
17.66	-47.25	-20.57
17.73	-47.17	-20.75
17.79	-47.09	-20.91
17.86	-47.01	-21.07
17.93	-46.93	-21.22
18.00	-46.85	-21.37
18.06	-46.76	-21.51
18.13	-46.68	-21.64
18.20	-46.59	-21.76
18.27	-46.50	-21.89
18.34	-46.41	-22.00
18.41	-46.32	-22.11
18.48	-46.22	-22.22
18.55	-46.13	-22.32
18.62	-46.03	-22.42
18.69	-45.93	-22.52
18.76	-45.83	-22.61
18.83	-45.73	-22.70
18.90	-45.63	-22.79
18.97	-45.52	-22.88
19.04	-45.42	-22.96
19.11	-45.31	-23.05
19.19	-45.20	-23.13
19.26	-45.10	-23.22
19.33	-44.99	-23.30
19.40	-44.87	-23.39
19.48	-44.76	-23.47
19.55	-44.65	-23.56
19.62	-44.53	-23.65
19.70	-44.42	-23.74
19.77	-44.30	-23.84
19.85	-44.19	-23.94
19.92	-44.07	-24.05
20.00	-43.95	-24.16
20.07	-43.83	-24.27
20.15	-43.71	-24.40
20.22	-43.59	-24.52
20.30	-43.47	-24.66
20.38	-43.34	-24.80
20.45	-43.22	-24.96
20.53	-43.10	-25.12
20.61	-42.97	-25.29
20.69	-42.85	-25.47
20.77	-42.72	-25.66
20.84	-42.60	-25.86
20.92	-42.47	-26.07
21.00	-42.34	-26.29
21.08	-42.22	-26.52
21.16	-42.09	-26.76
21.24	-41.96	-27.00
21.32	-41.83	-27.26
21.40	-41.70	-27.52
21.48	-41.57	-27.79
21.56	-41.44	-28.07
21.64	-41.31	-28.36
21.73	-41.18	-28.66
21.81	-41.05	-28.97
21.89	-40.91	-29.28
21.97	-40.78	-29.61
22.06	-40.65	-29.94
22.14	-40.51	-30.27
22.22	-40.38	-30.62
22.31	-40.24	-30.97
22.39	-40.11	-31.33
22.47	-39.97	-31.70
22.56	-39.83	-32.08
22.64	-39.70	-32.46
22.73	-39.56	-32.85
22.82	-39.42	-33.24
22.90	-39.28	-33.64
22.99	-39.14	-34.05
23.07	-39.00	-34.46
23.16	-38.86	-34.88
23.25	-38.71	-35.31
23.34	-38.57	-35.74
23.43	-38.43	-36.18
23.51	-38.29	-36.62
23.60	-38.14	-37.06
23.69	-38.00	-37.52
23.78	-37.85	-37.97
23.87	-37.70	-38.44
23.96	-37.56	-38.91
24.05	-37.41	-39.39
24.14	-37.26	-39.88
24.23	-37.11	-40.38
24.32	-36.96	-40.89
24.42	-36.81	-41.41
24.51	-36.66	-41.94
24.60	-36.51	-42.48
24.69	-36.36	-43.03
24.79	-36.20	-43.59
24.88	-36.05	-44.17
24.97	-35.89	-44.76
25.07	-35.74	-45.37
25.16	-35.58	-45.99
25.26	-35.42	-46.63
25.35	-35.27	-47.28
25.45	-35.11	-47.95
25.54	-34.95	-48.64
25.64	-34.79	-49.35
25.74	-34.63	-50.08
25.84	-34.47	-50.83
25.93	-34.30	-51.59
26.03	-34.14	-52.38
26.13	-33.98	-53.20
26.23	-33.81	-54.03
26.33	-33.64	-54.90
26.43	-33.48	-55.78
26.53	-33.31	-56.69
26.63	-33.14	-57.63
26.73	-32.97	-58.59
26.83	-32.80	-59.58
26.93	-32.64	-60.59
27.03	-32.47	-61.63
27.13	-32.30	-62.70
27.23	-32.13	-63.79
27.34	-31.97	-64.90
27.44	-31.80	-66.05
27.54	-31.64	-67.21
27.65	-31.48	-68.40
27.75	-31.32	-69.62
27.86	-31.17	-70.86
27.96	-31.01	-72.13
28.07	-30.86	-73.43
28.17	-30.71	-74.74
28.28	-30.57	-76.09
28.39	-30.43	-77.45
28.49	-30.29	-78.85
28.60	-30.16	-80.27
28.71	-30.03	-81.71
28.82	-29.91	-83.18
28.93	-29.80	-84.67
29.03	-29.69	-86.18
29.14	-29.58	-87.73
29.25	-29.48	-89.29
29.36	-29.39	-90.88
29.48	-29.31	-92.49
29.59	-29.23	-94.12
29.70	-29.16	-95.78
29.81	-29.10	-97.44
29.92	-29.04	-99.13
30.04	-28.99	-100.82
30.15	-28.95	-102.53
30.26	-28.91	-104.24
30.38	-28.88	-105.96
30.49	-28.85	-107.69
30.61	-28.83	-109.41
30.72	-28.82	-111.13
30.84	-28.81	-112.85
30.95	-28.81	-114.56
31.07	-28.81	-116.26
31.19	-28.82	-117.95
31.31	-28.84	-119.63
31.42	-28.86	-121.28
31.54	-28.88	-122.92
31.66	-28.91	-124.53
31.78	-28.95	-126.12
31.90	-28.99	-127.67
32.02	-29.03	-129.19
32.14	-29.08	-130.68
32.26	-29.13	-132.13
32.39	-29.18	-133.53
32.51	-29.24	-134.90
32.63	-29.31	-136.22
32.75	-29.37	-137.51
32.88	-29.44	-138.75
33.00	-29.52	-139.96
33.13	-29.59	-141.14
33.25	-29.67	-142.27
33.38	-29.75	-143.38
33.50	-29.83	-144.45
33.63	-29.92	-145.48
33.76	-30.00	-146.49
33.88	-30.09	-147.46
34.01	-30.18	-148.41
34.14	-30.27	-149.32
34.27	-30.36	-150.21
34.40	-30.45	-151.08
34.53	-30.54	-151.92
34.66	-30.63	-152.73
34.79	-30.72	-153.53
34.92	-30.81	-154.30
35.05	-30.89	-155.06
35.18	-30.98	-155.79
35.32	-31.06	-156.51
35.45	-31.14	-157.22
35.58	-31.22	-157.91
35.72	-31.30	-158.58
35.85	-31.38	-159.23
35.99	-31.45	-159.87
36.12	-31.53	-160.50
36.26	-31.60	-161.11
36.40	-31.67	-161.71
36.53	-31.74	-162.30
36.67	-31.80	-162.87
36.81	-31.87	-163.42
36.95	-31.93	-163.97
37.09	-32.00	-164.50
37.23	-32.06	-165.02
37.37	-32.12	-165.54
37.51	-32.17	-166.03
37.65	-32.23	-166.52
37.79	-32.29	-167.00
37.94	-32.34	-167.47
38.08	-32.39	-167.94
38.22	-32.44	-168.39
38.37	-32.50	-168.83
38.51	-32.54	-169.27
38.66	-32.59	-169.70
38.80	-32.64	-170.12
38.95	-32.69	-170.53
39.10	-32.73	-170.94
39.24	-32.77	-171.34
39.39	-32.81	-171.73
39.54	-32.86	-172.12
39.69	-32.90	-172.50
39.84	-32.93	-172.87
39.99	-32.97	-173.24
40.14	-33.01	-173.60
40.29	-33.04	-173.95
40.45	-33.08	-174.30
40.60	-33.11	-174.65
40.75	-33.14	-174.99
40.90	-33.18	-175.32
41.06	-33.21	-175.65
41.21	-33.24	-175.98
41.37	-33.26	-176.30
41.53	-33.29	-176.62
41.68	-33.32	-176.94
41.84	-33.34	-177.25
42.00	-33.37	-177.56
42.16	-33.39	-177.86
42.32	-33.41	-178.16
42.47	-33.43	-178.46
42.63	-33.46	-178.76
42.80	-33.48	-179.06
42.96	-33.49	-179.35
43.12	-33.51	-179.64
43.28	-33.53	-179.93
43.45	-33.55	179.78
43.61	-33.56	179.50
43.77	-33.58	179.21
43.94	-33.59	178.92
44.10	-33.61	178.64
44.27	-33.62	178.35
44.44	-33.63	178.07
44.61	-33.64	177.78
44.77	-33.65	177.50
44.94	-33.66	177.22
45.11	-33.67	176.93
45.28	-33.68	176.65
45.45	-33.69	176.36
45.63	-33.69	176.08
45.80	-33.70	175.79
45.97	-33.70	175.51
46.14	-33.70	175.22
46.32	-33.71	174.94
46.49	-33.71	174.65
46.67	-33.71	174.37
46.84	-33.70	174.08
47.02	-33.70	173.79
47.20	-33.70	173.50
47.38	-33.69	173.21
47.56	-33.69	172.92
47.74	-33.68	172.63
47.92	-33.67	172.34
48.10	-33.66	172.05
48.28	-33.65	171.76
48.46	-33.64	171.47
48.64	-33.63	171.18
48.83	-33.61	170.89
49.01	-33.60	170.59
49.20	-33.58	170.30
49.38	-33.57	170.01
49.57	-33.55	169.72
49.75	-33.53	169.42
49.94	-33.51	169.13
50.13	-33.49	168.84
50.32	-33.46	168.55
50.51	-33.44	168.25
50.70	-33.42	167.96
50.89	-33.39	167.66
51.08	-33.37	167.36
51.28	-33.34	167.07
51.47	-33.31	166.76
51.66	-33.28	166.46
51.86	-33.25	166.15
52.05	-33.22	165.84
52.25	-33.19	165.53
52.45	-33.16	165.21
52.65	-33.13	164.89
52.85	-33.09	164.56
53.04	-33.06	164.23
53.24	-33.02	163.90
53.45	-32.99	163.55
53.65	-32.95	163.21
53.85	-32.91	162.85
54.05	-32.87	162.50
54.26	-32.83	162.13
54.46	-32.79	161.76
54.67	-32.75	161.39
54.87	-32.71	161.01
55.08	-32.66	160.62
55.29	-32.62	160.23
55.50	-32.57	159.83
55.71	-32.52	159.42
55.92	-32.47	159.01
56.13	-32.42	158.59
56.34	-32.37	158.16
56.55	-32.31	157.72
56.77	-32.26	157.28
56.98	-32.20	156.83
57.19	-32.14	156.38
57.41	-32.08	155.91
57.63	-32.02	155.44
57.84	-31.96	154.96
58.06	-31.90	154.47
58.28	-31.84	153.97
58.50	-31.77	153.46
58.72	-31.71	152.95
58.94	-31.64	152.42
59.17	-31.57	151.89
59.39	-31.50	151.34
59.61	-31.43	150.78
59.84	-31.36	150.22
60.06	-31.29	149.64
60.29	-31.21	149.04
60.52	-31.14	148.44
60.75	-31.07	147.82
60.98	-30.99	147.18
61.21	-30.91	146.53
61.44	-30.84	145.86
61.67	-30.76	145.18
61.90	-30.68	144.48
62.14	-30.60	143.77
62.37	-30.52	143.03
62.61	-30.44	142.27
62.84	-30.36	141.50
63.08	-30.28	140.70
63.32	-30.19	139.88
63.56	-30.11	139.04
63.80	-30.03	138.17
64.04	-29.94	137.28
64.28	-29.86	136.36
64.52	-29.77	135.42
64.76	-29.69	134.45
65.01	-29.60	133.44
65.25	-29.52	132.42
65.50	-29.43	131.36
65.75	-29.35	130.27
66.00	-29.26	129.15
66.24	-29.18	128.01
66.49	-29.10	126.83
66.75	-29.01	125.62
67.00	-28.93	124.38
67.25	-28.86	123.10
67.50	-28.78	121.80
67.76	-28.70	120.46
68.01	-28.63	119.09
68.27	-28.56	117.68
68.53	-28.50	116.25
68.79	-28.43	114.78
69.05	-28.37	113.28
69.31	-28.32	111.75
69.57	-28.27	110.19
69.83	-28.22	108.60
70.09	-28.19	106.97
70.36	-28.15	105.32
70.62	-28.13	103.64
70.89	-28.11	101.93
71.16	-28.10	100.20
71.43	-28.09	98.44
71.70	-28.09	96.67
71.97	-28.10	94.89
72.24	-28.12	93.09
72.51	-28.14	91.28
72.79	-28.17	89.47
73.06	-28.22	87.66
73.34	-28.26	85.85
73.61	-28.32	84.05
73.89	-28.39	82.25
74.17	-28.46	80.46
74.45	-28.54	78.69
74.73	-28.63	76.93
75.01	-28.73	75.20
75.29	-28.83	73.48
75.58	-28.94	71.79
75.86	-29.06	70.13
76.15	-29.18	68.50
76.44	-29.31	66.91
76.73	-29.44	65.35
77.02	-29.58	63.82
77.31	-29.72	62.33
77.60	-29.87	60.88
77.89	-30.02	59.46
78.18	-30.18	58.07
78.48	-30.34	56.72
78.78	-30.50	55.41
79.07	-30.67	54.13
79.37	-30.83	52.88
79.67	-31.00	51.67
79.97	-31.18	50.49
80.27	-31.35	49.35
80.58	-31.52	48.23
80.88	-31.70	47.15
81.19	-31.88	46.09
81.49	-32.05	45.06
81.80	-32.23	44.06
82.11	-32.41	43.08
82.42	-32.58	42.13
82.73	-32.76	41.20
83.04	-32.94	40.30
83.35	-33.11	39.42
83.67	-33.29	38.57
83.99	-33.46	37.74
84.30	-33.63	36.93
84.62	-33.80	36.15
84.94	-33.98	35.39
85.26	-34.15	34.66
85.58	-34.31	33.95
85.90	-34.48	33.26
86.23	-34.65	32.59
86.55	-34.82	31.94
86.88	-34.98	31.30
87.21	-35.15	30.67
87.54	-35.31	30.06
87.87	-35.47	29.46
88.20	-35.64	28.86
88.53	-35.80	28.27
88.87	-35.96	27.69
89.20	-36.12	27.12
89.54	-36.28	26.56
89.88	-36.44	26.00
90.22	-36.59	25.46
90.56	-36.74	24.92
90.90	-36.90	24.40
91.24	-37.04	23.89
91.59	-37.19	23.38
91.93	-37.33	22.90
92.28	-37.47	22.42
92.63	-37.61	21.95
92.98	-37.75	21.51
93.33	-37.89	21.07
93.68	-38.03	20.65
94.03	-38.17	20.24
94.39	-38.31	19.85
94.74	-38.44	19.47
95.10	-38.58	19.10
95.46	-38.72	18.74
95.82	-38.85	18.38
96.18	-38.99	18.02
96.54	-39.12	17.65
96.91	-39.26	17.28
97.27	-39.39	16.91
97.64	-39.52	16.53
98.01	-39.65	16.16
98.38	-39.77	15.78
98.75	-39.90	15.41
99.12	-40.02	15.05
99.50	-40.14	14.69
99.87	-40.26	14.35
100.25	-40.38	14.02
100.63	-40.50	13.71
101.01	-40.61	13.41
101.39	-40.73	13.12
101.77	-40.84	12.84
102.16	-40.96	12.58
102.54	-41.08	12.33
102.93	-41.19	12.09
103.32	-41.31	11.86
103.71	-41.43	11.64
104.10	-41.55	11.42
104.49	-41.67	11.20
104.88	-41.78	10.97
105.28	-41.90	10.74
105.68	-42.01	10.49
106.08	-42.12	10.23
106.48	-42.24	9.97
106.88	-42.34	9.70
107.28	-42.45	9.44
107.69	-42.56	9.18
108.09	-42.66	8.94
108.50	-42.76	8.71
108.91	-42.86	8.50
109.32	-42.96	8.30
109.73	-43.06	8.12
110.15	-43.16	7.95
110.56	-43.26	7.78
110.98	-43.37	7.61
111.40	-43.47	7.43
111.82	-43.58	7.25
112.24	-43.69	7.06
112.67	-43.80	6.86
113.09	-43.91	6.65
113.52	-44.02	6.44
113.95	-44.13	6.23
114.38	-44.24	6.01
114.81	-44.34	5.78
115.24	-44.44	5.56
115.68	-44.53	5.35
116.11	-44.63	5.15
116.55	-44.73	4.96
116.99	-44.82	4.80
117.43	-44.92	4.66
117.87	-45.02	4.54
118.32	-45.12	4.43
118.77	-45.22	4.32
119.21	-45.32	4.19
119.66	-45.42	4.03
120.12	-45.52	3.82
120.57	-45.62	3.55
121.02	-45.73	3.25
121.48	-45.83	2.92
121.94	-45.92	2.58
122.40	-46.02	2.26
122.86	-46.11	1.98
123.32	-46.20	1.75
123.79	-46.28	1.58
124.26	-46.36	1.45
124.73	-46.44	1.34
125.20	-46.52	1.25
125.67	-46.61	1.15
126.14	-46.70	1.03
126.62	-46.79	0.88
127.10	-46.88	0.70
127.58	-46.98	0.51
128.06	-47.07	0.29
128.54	-47.16	0.06
129.03	-47.25	-0.17
129.51	-47.32	-0.41
130.00	-47.39	-0.64
130.49	-47.46	-0.86
130.98	-47.53	-1.06
131.48	-47.59	-1.24
131.98	-47.66	-1.37
132.47	-47.74	-1.47
132.97	-47.82	-1.55
133.48	-47.90	-1.62
133.98	-47.99	-1.71
134.48	-48.08	-1.82
134.99	-48.17	-1.99
135.50	-48.26	-2.19
136.01	-48.35	-2.43
136.53	-48.44	-2.69
137.04	-48.52	-2.93
137.56	-48.60	-3.15
138.08	-48.67	-3.32
138.60	-48.73	-3.45
139.12	-48.79	-3.54
139.65	-48.84	-3.62
140.17	-48.91	-3.68
140.70	-48.98	-3.75
141.23	-49.07	-3.83
141.77	-49.16	-3.92
142.30	-49.26	-4.05
142.84	-49.35	-4.20
143.38	-49.44	-4.40
143.92	-49.52	-4.64
144.46	-49.59	-4.91
145.01	-49.66	-5.18
145.55	-49.72	-5.42
146.10	-49.77	-5.62
146.65	-49.84	-5.73
147.21	-49.90	-5.76
147.76	-49.98	-5.74
148.32	-50.05	-5.72
148.88	-50.13	-5.74
149.44	-50.22	-5.85
150.01	-50.31	-6.08
150.57	-50.40	-6.38
151.14	-50.48	-6.72
151.71	-50.56	-7.04
152.28	-50.63	-7.28
152.86	-50.68	-7.41
153.43	-50.73	-7.45
154.01	-50.77	-7.43
154.59	-50.82	-7.39
155.18	-50.89	-7.39
155.76	-50.97	-7.44
156.35	-51.07	-7.57
156.94	-51.18	-7.75
157.53	-51.28	-7.96
158.13	-51.37	-8.21
158.72	-51.43	-8.47
159.32	-51.48	-8.72
159.93	-51.52	-8.95
160.53	-51.57	-9.12
161.13	-51.63	-9.22
161.74	-51.72	-9.23
162.35	-51.82	-9.20
162.97	-51.92	-9.18
163.58	-52.03	-9.23
164.20	-52.12	-9.39
164.82	-52.19	-9.70
165.44	-52.24	-10.08
166.06	-52.28	-10.45
166.69	-52.32	-10.73
167.32	-52.37	-10.84
167.95	-52.42	-10.79
168.58	-52.48	-10.66
169.22	-52.54	-10.53
169.86	-52.62	-10.51
170.50	-52.71	-10.65
171.14	-52.81	-10.93
171.79	-52.90	-11.27
172.44	-52.98	-11.58
173.09	-53.04	-11.78
173.74	-53.09	-11.85
174.40	-53.12	-11.85
175.06	-53.17	-11.82
175.72	-53.24	-11.84
176.38	-53.34	-11.96
177.04	-53.47	-12.17
177.71	-53.61	-12.46
178.38	-53.72	-12.81
179.06	-53.81	-13.19
179.73	-53.85	-13.58
180.41	-53.87	-13.96
181.09	-53.89	-14.31
181.77	-53.93	-14.61
182.46	-54.00	-14.84
183.15	-54.08	-15.05
183.84	-54.16	-15.28
184.53	-54.22	-15.57
185.23	-54.27	-15.95
185.93	-54.29	-16.36
186.63	-54.30	-16.71
187.33	-54.32	-16.91
188.04	-54.35	-16.88
188.75	-54.39	-16.69
189.46	-54.45	-16.47
190.18	-54.52	-16.36
190.90	-54.59	-16.49
191.62	-54.66	-16.83
192.34	-54.73	-17.23
193.07	-54.80	-17.54
193.79	-54.86	-17.63
194.53	-54.91	-17.52
195.26	-54.98	-17.36
196.00	-55.05	-17.31
196.74	-55.15	-17.53
197.48	-55.25	-18.01
198.22	-55.36	-18.57
198.97	-55.45	-19.08
199.72	-55.50	-19.36
200.48	-55.54	-19.43
201.23	-55.56	-19.40
201.99	-55.60	-19.37
202.75	-55.68	-19.44
203.52	-55.77	-19.62
204.29	-55.86	-19.85
205.06	-55.91	-20.10
205.83	-55.91	-20.31
206.61	-55.90	-20.47
207.39	-55.89	-20.57
208.17	-55.94	-20.61
208.96	-56.06	-20.60
209.74	-56.21	-20.57
210.54	-56.34	-20.58
211.33	-56.42	-20.69
212.13	-56.43	-20.86
212.93	-56.42	-21.01
213.73	-56.43	-21.02
214.54	-56.52	-20.83
215.35	-56.65	-20.53
216.16	-56.80	-20.33
216.98	-56.91	-20.41
217.80	-56.97	-20.85
218.62	-57.00	-21.39
219.44	-57.02	-21.77
220.27	-57.05	-21.72
221.10	-57.11	-21.33
221.94	-57.18	-20.94
222.77	-57.24	-20.90
223.61	-57.29	-21.40
224.46	-57.33	-22.14
225.30	-57.37	-22.76
226.15	-57.41	-22.92
227.01	-57.45	-22.67
227.86	-57.49	-22.36
228.72	-57.51	-22.30
229.59	-57.51	-22.63
230.45	-57.50	-23.09
231.32	-57.49	-23.36
232.20	-57.48	-23.17
233.07	-57.49	-22.71
233.95	-57.52	-22.30
234.84	-57.56	-22.30
235.72	-57.63	-22.69
236.61	-57.70	-23.16
237.50	-57.74	-23.38
238.40	-57.75	-23.18
239.30	-57.75	-22.82
240.20	-57.78	-22.60
241.11	-57.85	-22.74
242.02	-57.93	-23.10
242.93	-57.98	-23.43
243.85	-57.96	-23.49
244.77	-57.90	-23.35
245.69	-57.84	-23.23
246.62	-57.83	-23.34
247.55	-57.88	-23.69
248.48	-57.93	-24.11
249.42	-57.95	-24.43
250.36	-57.93	-24.61
251.31	-57.91	-24.73
252.26	-57.92	-24.89
253.21	-57.97	-25.16
254.16	-58.03	-25.51
255.12	-58.03	-25.88
256.09	-57.96	-26.26
257.05	-57.88	-26.58
258.02	-57.84	-26.82
259.00	-57.89	-26.97
259.97	-57.96	-27.15
260.95	-57.99	-27.49
261.94	-57.95	-28.03
262.93	-57.90	-28.57
263.92	-57.90	-28.90
264.92	-57.97	-28.96
265.92	-58.05	-28.94
266.92	-58.06	-29.09
267.93	-58.00	-29.51
268.94	-57.93	-30.03
269.95	-57.94	-30.47
270.97	-58.05	-30.79
271.99	-58.16	-31.11
273.02	-58.16	-31.58
274.05	-58.07	-32.19
275.08	-57.97	-32.82
276.12	-57.96	-33.37
277.16	-58.02	-33.89
278.21	-58.06	-34.55
279.26	-58.02	-35.45
280.31	-57.94	-36.44
281.37	-57.90	-37.23
282.43	-57.92	-37.67
283.50	-57.97	-38.02
284.57	-57.96	-38.60
285.64	-57.88	-39.49
286.72	-57.84	-40.41
287.80	-57.93	-41.07
288.89	-58.11	-41.61
289.98	-58.27	-42.41
291.07	-58.32	-43.74
292.17	-58.32	-45.21
293.27	-58.42	-46.20
294.38	-58.64	-46.49
295.49	-58.87	-46.54
296.61	-59.00	-46.85
297.73	-59.03	-47.38
298.85	-59.03	-47.72
299.98	-59.08	-47.57
301.11	-59.12	-47.30
302.25	-59.09	-47.38
303.39	-58.98	-47.88
304.53	-58.91	-48.36
305.68	-58.95	-48.41
306.83	-59.05	-48.27
307.99	-59.08	-48.39
309.15	-59.00	-48.98
310.32	-58.90	-49.81
311.49	-58.85	-50.65
312.67	-58.84	-51.52
313.85	-58.80	-52.54
315.03	-58.70	-53.75
316.22	-58.63	-55.05
317.41	-58.65	-56.37
318.61	-58.71	-57.87
319.81	-58.71	-59.84
321.02	-58.65	-62.37
322.23	-58.70	-65.38
323.45	-58.96	-68.73
324.67	-59.40	-72.21
325.89	-59.94	-75.57
327.12	-60.59	-78.27
328.36	-61.43	-79.53
329.60	-62.45	-78.74
330.84	-63.45	-75.67
332.09	-64.21	-70.29
333.34	-64.67	-63.24
334.60	-64.80	-55.51
335.86	-64.55	-48.38
337.13	-63.87	-43.46
338.40	-62.82	-41.76
339.68	-61.77	-42.64
340.96	-61.12	-45.21
342.25	-60.84	-48.33
343.54	-60.78	-50.86
344.83	-60.83	-52.67
346.14	-60.95	-54.40
347.44	-61.09	-56.07
348.75	-61.23	-56.62
350.07	-61.32	-55.49
351.39	-61.31	-54.20
352.72	-61.13	-54.29
354.05	-60.91	-55.25
355.38	-60.81	-55.87
356.72	-60.84	-55.94
358.07	-60.90	-55.91
359.42	-60.91	-56.13
360.78	-60.81	-56.83
362.14	-60.60	-58.01
363.51	-60.46	-59.27
364.88	-60.47	-60.20
366.25	-60.48	-60.43
367.64	-60.34	-59.92
369.02	-60.10	-59.94
370.42	-59.84	-61.69
371.81	-59.70	-64.33
373.22	-59.80	-66.43
374.63	-59.99	-67.45
376.04	-60.02	-67.33
377.46	-59.88	-67.27
378.88	-59.65	-69.02
380.31	-59.43	-72.30
381.75	-59.29	-75.62
383.19	-59.25	-78.73
384.63	-59.32	-82.30
386.09	-59.49	-86.32
387.54	-59.82	-90.21
389.00	-60.38	-93.33
390.47	-61.22	-95.06
391.95	-62.11	-95.06
393.43	-62.55	-93.34
394.91	-62.63	-91.07
396.40	-62.90	-90.26
397.90	-63.36	-90.23
399.40	-63.65	-88.42
400.90	-63.71	-85.52
402.42	-63.75	-84.26
403.94	-63.78	-84.26
405.46	-63.75	-83.51
406.99	-63.67	-82.66
408.53	-63.65	-83.30
410.07	-63.81	-83.99
411.61	-64.21	-82.77
