Freq[Hz]	[dBV]	Phase[Deg]
10.00	-58.68	80.06
10.04	-58.70	82.11
10.08	-58.73	84.19
10.11	-58.75	86.30
10.15	-58.78	88.45
10.19	-58.80	90.62
10.23	-58.82	92.82
10.27	-58.84	95.05
10.31	-58.86	97.31
10.34	-58.88	99.58
10.38	-58.90	101.88
10.42	-58.92	104.20
10.46	-58.93	106.54
10.50	-58.95	108.90
10.54	-58.97	111.27
10.58	-58.98	113.66
10.62	-59.00	116.06
10.66	-59.01	118.47
10.70	-59.03	120.88
10.74	-59.05	123.31
10.78	-59.06	125.73
10.82	-59.08	128.16
10.86	-59.09	130.59
10.90	-59.11	133.02
10.95	-59.13	135.44
10.99	-59.14	137.86
11.03	-59.16	140.27
11.07	-59.18	142.66
11.11	-59.20	145.05
11.15	-59.22	147.42
11.20	-59.24	149.77
11.24	-59.26	152.09
11.28	-59.28	154.40
11.32	-59.30	156.68
11.37	-59.33	158.93
11.41	-59.35	161.15
11.45	-59.38	163.34
11.50	-59.41	165.48
11.54	-59.44	167.59
11.58	-59.47	169.66
11.63	-59.51	171.68
11.67	-59.54	173.65
11.71	-59.58	175.57
11.76	-59.62	177.43
11.80	-59.66	179.24
11.85	-59.71	-179.01
11.89	-59.75	-177.32
11.94	-59.80	-175.67
11.98	-59.85	-174.09
12.03	-59.91	-172.55
12.07	-59.96	-171.08
12.12	-60.02	-169.65
12.16	-60.08	-168.28
12.21	-60.14	-166.96
12.26	-60.20	-165.70
12.30	-60.26	-164.48
12.35	-60.33	-163.32
12.39	-60.39	-162.21
12.44	-60.46	-161.16
12.49	-60.53	-160.15
12.54	-60.61	-159.19
12.58	-60.68	-158.28
12.63	-60.76	-157.42
12.68	-60.83	-156.61
12.73	-60.91	-155.85
12.77	-60.99	-155.14
12.82	-61.07	-154.47
12.87	-61.15	-153.85
12.92	-61.23	-153.28
12.97	-61.32	-152.74
13.02	-61.40	-152.26
13.07	-61.49	-151.82
13.12	-61.57	-151.42
13.16	-61.66	-151.06
13.21	-61.75	-150.75
13.26	-61.84	-150.47
13.31	-61.93	-150.24
13.36	-62.02	-150.04
13.41	-62.11	-149.88
13.47	-62.20	-149.76
13.52	-62.29	-149.68
13.57	-62.38	-149.63
13.62	-62.47	-149.61
13.67	-62.56	-149.63
13.72	-62.65	-149.68
13.77	-62.74	-149.76
13.83	-62.83	-149.88
13.88	-62.92	-150.02
13.93	-63.01	-150.19
13.98	-63.10	-150.38
14.04	-63.19	-150.61
14.09	-63.27	-150.85
14.14	-63.36	-151.12
14.19	-63.45	-151.41
14.25	-63.53	-151.72
14.30	-63.62	-152.05
14.36	-63.70	-152.40
14.41	-63.78	-152.76
14.46	-63.86	-153.14
14.52	-63.93	-153.53
14.57	-64.01	-153.94
14.63	-64.08	-154.35
14.68	-64.16	-154.77
14.74	-64.22	-155.20
14.80	-64.29	-155.64
14.85	-64.36	-156.08
14.91	-64.42	-156.53
14.96	-64.48	-156.99
15.02	-64.54	-157.46
15.08	-64.60	-157.93
15.13	-64.65	-158.41
15.19	-64.70	-158.90
15.25	-64.75	-159.39
15.31	-64.80	-159.89
15.36	-64.84	-160.40
15.42	-64.88	-160.91
15.48	-64.92	-161.43
15.54	-64.96	-161.95
15.60	-65.00	-162.48
15.66	-65.03	-163.02
15.71	-65.06	-163.56
15.77	-65.08	-164.10
15.83	-65.11	-164.65
15.89	-65.13	-165.21
15.95	-65.14	-165.77
16.01	-65.16	-166.33
16.07	-65.17	-166.90
16.13	-65.18	-167.48
16.19	-65.19	-168.05
16.26	-65.19	-168.63
16.32	-65.19	-169.22
16.38	-65.19	-169.80
16.44	-65.18	-170.39
16.50	-65.18	-170.99
16.56	-65.16	-171.58
16.63	-65.15	-172.18
16.69	-65.13	-172.78
16.75	-65.11	-173.38
16.82	-65.08	-173.98
16.88	-65.05	-174.59
16.94	-65.02	-175.19
17.01	-64.99	-175.80
17.07	-64.95	-176.40
17.14	-64.90	-177.01
17.20	-64.86	-177.61
17.27	-64.81	-178.22
17.33	-64.75	-178.82
17.40	-64.70	-179.42
17.46	-64.64	179.98
17.53	-64.57	179.38
17.59	-64.50	178.78
17.66	-64.43	178.19
17.73	-64.35	177.59
17.79	-64.27	177.01
17.86	-64.19	176.42
17.93	-64.10	175.84
18.00	-64.01	175.26
18.06	-63.91	174.68
18.13	-63.82	174.11
18.20	-63.71	173.54
18.27	-63.61	172.97
18.34	-63.50	172.41
18.41	-63.39	171.86
18.48	-63.28	171.30
18.55	-63.16	170.75
18.62	-63.04	170.21
18.69	-62.92	169.67
18.76	-62.80	169.14
18.83	-62.67	168.61
18.90	-62.54	168.08
18.97	-62.41	167.56
19.04	-62.28	167.05
19.11	-62.14	166.54
19.19	-62.01	166.04
19.26	-61.87	165.54
19.33	-61.73	165.05
19.40	-61.59	164.57
19.48	-61.45	164.09
19.55	-61.30	163.62
19.62	-61.16	163.16
19.70	-61.02	162.71
19.77	-60.87	162.26
19.85	-60.73	161.82
19.92	-60.58	161.38
20.00	-60.43	160.96
20.07	-60.29	160.54
20.15	-60.14	160.14
20.22	-60.00	159.74
20.30	-59.85	159.35
20.38	-59.71	158.97
20.45	-59.57	158.59
20.53	-59.42	158.23
20.61	-59.28	157.88
20.69	-59.14	157.54
20.77	-59.01	157.21
20.84	-58.87	156.88
20.92	-58.73	156.57
21.00	-58.60	156.27
21.08	-58.47	155.97
21.16	-58.34	155.69
21.24	-58.20	155.41
21.32	-58.08	155.15
21.40	-57.95	154.89
21.48	-57.82	154.65
21.56	-57.69	154.41
21.64	-57.57	154.18
21.73	-57.45	153.96
21.81	-57.32	153.75
21.89	-57.20	153.55
21.97	-57.08	153.36
22.06	-56.96	153.18
22.14	-56.84	153.00
22.22	-56.73	152.84
22.31	-56.61	152.68
22.39	-56.50	152.53
22.47	-56.38	152.39
22.56	-56.27	152.26
22.64	-56.15	152.14
22.73	-56.04	152.02
22.82	-55.93	151.92
22.90	-55.82	151.82
22.99	-55.71	151.72
23.07	-55.60	151.64
23.16	-55.49	151.56
23.25	-55.39	151.49
23.34	-55.28	151.43
23.43	-55.17	151.38
23.51	-55.07	151.33
23.60	-54.96	151.29
23.69	-54.85	151.25
23.78	-54.75	151.22
23.87	-54.65	151.20
23.96	-54.54	151.18
24.05	-54.44	151.16
24.14	-54.34	151.15
24.23	-54.23	151.14
24.32	-54.13	151.14
24.42	-54.03	151.14
24.51	-53.93	151.13
24.60	-53.83	151.13
24.69	-53.73	151.14
24.79	-53.63	151.14
24.88	-53.53	151.14
24.97	-53.43	151.14
25.07	-53.33	151.14
25.16	-53.23	151.13
25.26	-53.13	151.13
25.35	-53.03	151.12
25.45	-52.93	151.10
25.54	-52.84	151.08
25.64	-52.74	151.06
25.74	-52.64	151.03
25.84	-52.54	150.99
25.93	-52.44	150.94
26.03	-52.34	150.89
26.13	-52.24	150.83
26.23	-52.15	150.76
26.33	-52.05	150.67
26.43	-51.95	150.58
26.53	-51.85	150.47
26.63	-51.75	150.35
26.73	-51.65	150.22
26.83	-51.55	150.08
26.93	-51.45	149.92
27.03	-51.35	149.76
27.13	-51.25	149.58
27.23	-51.15	149.39
27.34	-51.05	149.18
27.44	-50.95	148.97
27.54	-50.85	148.74
27.65	-50.75	148.50
27.75	-50.65	148.25
27.86	-50.55	147.98
27.96	-50.45	147.71
28.07	-50.35	147.42
28.17	-50.25	147.12
28.28	-50.15	146.80
28.39	-50.05	146.48
28.49	-49.95	146.14
28.60	-49.85	145.79
28.71	-49.75	145.42
28.82	-49.65	145.05
28.93	-49.55	144.66
29.03	-49.45	144.26
29.14	-49.35	143.85
29.25	-49.25	143.42
29.36	-49.15	142.98
29.48	-49.06	142.53
29.59	-48.96	142.07
29.70	-48.86	141.59
29.81	-48.76	141.10
29.92	-48.66	140.59
30.04	-48.56	140.08
30.15	-48.46	139.54
30.26	-48.37	138.99
30.38	-48.27	138.43
30.49	-48.17	137.85
30.61	-48.07	137.25
30.72	-47.97	136.64
30.84	-47.87	136.01
30.95	-47.77	135.36
31.07	-47.67	134.70
31.19	-47.57	134.02
31.31	-47.47	133.31
31.42	-47.37	132.59
31.54	-47.27	131.85
31.66	-47.17	131.10
31.78	-47.06	130.32
31.90	-46.96	129.52
32.02	-46.86	128.69
32.14	-46.75	127.85
32.26	-46.65	126.99
32.39	-46.54	126.10
32.51	-46.43	125.19
32.63	-46.33	124.26
32.75	-46.22	123.31
32.88	-46.11	122.34
33.00	-46.01	121.34
33.13	-45.90	120.33
33.25	-45.79	119.30
33.38	-45.69	118.25
33.50	-45.58	117.18
33.63	-45.47	116.09
33.76	-45.37	114.99
33.88	-45.27	113.87
34.01	-45.17	112.73
34.14	-45.07	111.58
34.27	-44.97	110.41
34.40	-44.88	109.22
34.53	-44.78	108.03
34.66	-44.69	106.82
34.79	-44.61	105.59
34.92	-44.52	104.36
35.05	-44.44	103.11
35.18	-44.36	101.85
35.32	-44.29	100.58
35.45	-44.22	99.31
35.58	-44.15	98.02
35.72	-44.09	96.73
35.85	-44.03	95.43
35.99	-43.98	94.12
36.12	-43.93	92.81
36.26	-43.88	91.50
36.40	-43.85	90.19
36.53	-43.81	88.87
36.67	-43.78	87.55
36.81	-43.76	86.24
36.95	-43.74	84.93
37.09	-43.73	83.62
37.23	-43.73	82.31
37.37	-43.73	81.01
37.51	-43.74	79.72
37.65	-43.75	78.44
37.79	-43.78	77.17
37.94	-43.81	75.90
38.08	-43.84	74.66
38.22	-43.89	73.42
38.37	-43.94	72.20
38.51	-44.00	70.99
38.66	-44.06	69.80
38.80	-44.14	68.62
38.95	-44.22	67.45
39.10	-44.30	66.30
39.24	-44.40	65.17
39.39	-44.50	64.04
39.54	-44.60	62.94
39.69	-44.71	61.84
39.84	-44.82	60.76
39.99	-44.94	59.70
40.14	-45.07	58.65
40.29	-45.19	57.61
40.45	-45.33	56.59
40.60	-45.46	55.58
40.75	-45.60	54.59
40.90	-45.74	53.61
41.06	-45.88	52.64
41.21	-46.03	51.69
41.37	-46.18	50.75
41.53	-46.33	49.83
41.68	-46.48	48.93
41.84	-46.63	48.03
42.00	-46.79	47.16
42.16	-46.95	46.30
42.32	-47.10	45.46
42.47	-47.26	44.63
42.63	-47.42	43.83
42.80	-47.58	43.03
42.96	-47.73	42.26
43.12	-47.89	41.51
43.28	-48.05	40.77
43.45	-48.21	40.05
43.61	-48.36	39.35
43.77	-48.52	38.68
43.94	-48.67	38.02
44.10	-48.82	37.38
44.27	-48.97	36.76
44.44	-49.12	36.17
44.61	-49.27	35.60
44.77	-49.41	35.06
44.94	-49.56	34.54
45.11	-49.70	34.06
45.28	-49.85	33.61
45.45	-49.99	33.19
45.63	-50.14	32.80
45.80	-50.29	32.45
45.97	-50.43	32.14
46.14	-50.58	31.87
46.32	-50.73	31.65
46.49	-50.88	31.46
46.67	-51.03	31.33
46.84	-51.19	31.24
47.02	-51.34	31.20
47.20	-51.50	31.21
47.38	-51.67	31.26
47.56	-51.84	31.37
47.74	-52.01	31.51
47.92	-52.20	31.70
48.10	-52.39	31.93
48.28	-52.59	32.20
48.46	-52.80	32.50
48.64	-53.02	32.84
48.83	-53.26	33.22
49.01	-53.51	33.62
49.20	-53.78	34.05
49.38	-54.06	34.51
49.57	-54.36	34.99
49.75	-54.68	35.49
49.94	-55.02	36.02
50.13	-55.38	36.58
50.32	-55.76	37.19
50.51	-56.15	37.86
50.70	-56.55	38.63
50.89	-56.96	39.51
51.08	-57.39	40.51
51.28	-57.81	41.66
51.47	-58.24	42.99
51.66	-58.67	44.50
51.86	-59.10	46.23
52.05	-59.53	48.20
52.25	-59.94	50.42
52.45	-60.35	52.93
52.65	-60.74	55.74
52.85	-61.12	58.88
53.04	-61.48	62.34
53.24	-61.81	66.08
53.45	-62.12	70.06
53.65	-62.40	74.24
53.85	-62.65	78.57
54.05	-62.86	83.01
54.26	-63.03	87.51
54.46	-63.16	92.04
54.67	-63.24	96.53
54.87	-63.27	100.95
55.08	-63.24	105.25
55.29	-63.16	109.37
55.50	-63.01	113.26
55.71	-62.80	116.87
55.92	-62.52	120.18
56.13	-62.17	123.18
56.34	-61.77	125.89
56.55	-61.32	128.35
56.77	-60.82	130.56
56.98	-60.29	132.54
57.19	-59.73	134.32
57.41	-59.14	135.91
57.63	-58.54	137.34
57.84	-57.93	138.62
58.06	-57.33	139.79
58.28	-56.73	140.86
58.50	-56.14	141.85
58.72	-55.58	142.79
58.94	-55.04	143.69
59.17	-54.53	144.55
59.39	-54.05	145.36
59.61	-53.59	146.13
59.84	-53.14	146.86
60.06	-52.72	147.55
60.29	-52.32	148.19
60.52	-51.93	148.79
60.75	-51.57	149.34
60.98	-51.21	149.85
61.21	-50.87	150.31
61.44	-50.54	150.73
61.67	-50.21	151.11
61.90	-49.90	151.43
62.14	-49.60	151.71
62.37	-49.30	151.95
62.61	-49.00	152.13
62.84	-48.72	152.26
63.08	-48.44	152.34
63.32	-48.16	152.37
63.56	-47.89	152.35
63.80	-47.61	152.27
64.04	-47.34	152.14
64.28	-47.07	151.95
64.52	-46.80	151.70
64.76	-46.53	151.40
65.01	-46.26	151.04
65.25	-45.99	150.64
65.50	-45.72	150.19
65.75	-45.44	149.70
66.00	-45.17	149.17
66.24	-44.89	148.61
66.49	-44.61	148.03
66.75	-44.33	147.42
67.00	-44.05	146.80
67.25	-43.77	146.17
67.50	-43.48	145.53
67.76	-43.19	144.88
68.01	-42.90	144.23
68.27	-42.61	143.57
68.53	-42.32	142.90
68.79	-42.03	142.23
69.05	-41.74	141.54
69.31	-41.45	140.83
69.57	-41.16	140.11
69.83	-40.88	139.38
70.09	-40.59	138.62
70.36	-40.31	137.85
70.62	-40.03	137.05
70.89	-39.75	136.22
71.16	-39.47	135.36
71.43	-39.20	134.47
71.70	-38.93	133.52
71.97	-38.67	132.53
72.24	-38.40	131.49
72.51	-38.14	130.38
72.79	-37.88	129.20
73.06	-37.63	127.95
73.34	-37.37	126.63
73.61	-37.12	125.22
73.89	-36.87	123.73
74.17	-36.63	122.17
74.45	-36.39	120.54
74.73	-36.15	118.85
75.01	-35.91	117.10
75.29	-35.68	115.30
75.58	-35.45	113.44
75.86	-35.23	111.54
76.15	-35.01	109.61
76.44	-34.79	107.64
76.73	-34.58	105.64
77.02	-34.37	103.61
77.31	-34.18	101.55
77.60	-33.99	99.47
77.89	-33.82	97.36
78.18	-33.67	95.22
78.48	-33.53	93.07
78.78	-33.41	90.90
79.07	-33.31	88.71
79.37	-33.23	86.50
79.67	-33.18	84.28
79.97	-33.14	82.05
80.27	-33.13	79.82
80.58	-33.13	77.59
80.88	-33.14	75.35
81.19	-33.17	73.13
81.49	-33.21	70.91
81.80	-33.26	68.71
82.11	-33.31	66.53
82.42	-33.37	64.36
82.73	-33.43	62.24
83.04	-33.49	60.15
83.35	-33.57	58.11
83.67	-33.64	56.12
83.99	-33.72	54.20
84.30	-33.81	52.36
84.62	-33.90	50.60
84.94	-34.00	48.93
85.26	-34.10	47.37
85.58	-34.20	45.90
85.90	-34.31	44.51
86.23	-34.43	43.21
86.55	-34.55	41.98
86.88	-34.67	40.81
87.21	-34.79	39.69
87.54	-34.92	38.61
87.87	-35.05	37.57
88.20	-35.18	36.55
88.53	-35.31	35.56
88.87	-35.44	34.59
89.20	-35.58	33.64
89.54	-35.71	32.72
89.88	-35.83	31.83
90.22	-35.95	30.96
90.56	-36.07	30.11
90.90	-36.18	29.30
91.24	-36.28	28.51
91.59	-36.38	27.75
91.93	-36.47	27.02
92.28	-36.56	26.32
92.63	-36.64	25.64
92.98	-36.72	25.01
93.33	-36.81	24.40
93.68	-36.89	23.83
94.03	-36.98	23.29
94.39	-37.07	22.78
94.74	-37.16	22.29
95.10	-37.25	21.82
95.46	-37.35	21.37
95.82	-37.45	20.92
96.18	-37.54	20.47
96.54	-37.64	20.02
96.91	-37.74	19.56
97.27	-37.84	19.08
97.64	-37.93	18.60
98.01	-38.03	18.12
98.38	-38.12	17.64
98.75	-38.21	17.17
99.12	-38.30	16.73
99.50	-38.38	16.30
99.87	-38.46	15.91
100.25	-38.53	15.54
100.63	-38.60	15.20
101.01	-38.67	14.89
101.39	-38.73	14.61
101.77	-38.79	14.34
102.16	-38.85	14.10
102.54	-38.90	13.88
102.93	-38.96	13.67
103.32	-39.01	13.47
103.71	-39.06	13.27
104.10	-39.12	13.08
104.49	-39.17	12.88
104.88	-39.23	12.66
105.28	-39.30	12.43
105.68	-39.37	12.16
106.08	-39.44	11.88
106.48	-39.52	11.57
106.88	-39.60	11.25
107.28	-39.68	10.91
107.69	-39.75	10.57
108.09	-39.82	10.23
108.50	-39.87	9.89
108.91	-39.92	9.56
109.32	-39.96	9.24
109.73	-39.99	8.94
110.15	-40.02	8.65
110.56	-40.06	8.38
110.98	-40.09	8.14
111.40	-40.14	7.91
111.82	-40.19	7.71
112.24	-40.25	7.53
112.67	-40.32	7.35
113.09	-40.39	7.19
113.52	-40.45	7.02
113.95	-40.51	6.84
114.38	-40.56	6.65
114.81	-40.59	6.44
115.24	-40.62	6.23
115.68	-40.65	6.01
116.11	-40.67	5.82
116.55	-40.69	5.65
116.99	-40.72	5.51
117.43	-40.76	5.43
117.87	-40.80	5.39
118.32	-40.85	5.38
118.77	-40.90	5.39
119.21	-40.96	5.39
119.66	-41.03	5.36
120.12	-41.09	5.29
120.57	-41.16	5.17
121.02	-41.23	4.99
121.48	-41.29	4.76
121.94	-41.35	4.51
122.40	-41.40	4.22
122.86	-41.43	3.92
123.32	-41.44	3.61
123.79	-41.44	3.31
124.26	-41.43	3.03
124.73	-41.41	2.79
125.20	-41.40	2.62
125.67	-41.39	2.53
126.14	-41.41	2.54
126.62	-41.44	2.64
127.10	-41.49	2.79
127.58	-41.54	2.95
128.06	-41.60	3.07
128.54	-41.67	3.09
129.03	-41.72	2.97
129.51	-41.77	2.69
130.00	-41.80	2.30
130.49	-41.83	1.86
130.98	-41.86	1.42
131.48	-41.89	1.06
131.98	-41.91	0.84
132.47	-41.94	0.77
132.97	-41.96	0.81
133.48	-41.99	0.92
133.98	-42.03	1.04
134.48	-42.07	1.12
134.99	-42.11	1.10
135.50	-42.16	0.97
136.01	-42.21	0.76
136.53	-42.26	0.50
137.04	-42.29	0.25
137.56	-42.31	0.02
138.08	-42.32	-0.14
138.60	-42.30	-0.23
139.12	-42.29	-0.26
139.65	-42.27	-0.27
140.17	-42.25	-0.26
140.70	-42.26	-0.25
141.23	-42.28	-0.26
141.77	-42.32	-0.30
142.30	-42.36	-0.37
142.84	-42.41	-0.47
143.38	-42.45	-0.62
143.92	-42.48	-0.81
144.46	-42.49	-1.03
145.01	-42.50	-1.26
145.55	-42.51	-1.47
146.10	-42.51	-1.62
146.65	-42.53	-1.69
147.21	-42.55	-1.68
147.76	-42.58	-1.60
148.32	-42.61	-1.49
148.88	-42.65	-1.38
149.44	-42.69	-1.29
150.01	-42.74	-1.26
150.57	-42.78	-1.28
151.14	-42.81	-1.35
151.71	-42.84	-1.48
152.28	-42.86	-1.66
152.86	-42.87	-1.88
153.43	-42.88	-2.12
154.01	-42.87	-2.35
154.59	-42.87	-2.53
155.18	-42.87	-2.63
155.76	-42.88	-2.64
156.35	-42.90	-2.56
156.94	-42.91	-2.45
157.53	-42.93	-2.37
158.13	-42.93	-2.35
158.72	-42.93	-2.45
159.32	-42.93	-2.62
159.93	-42.92	-2.83
160.53	-42.93	-3.01
161.13	-42.94	-3.11
161.74	-42.98	-3.10
162.35	-43.02	-3.02
162.97	-43.07	-2.93
163.58	-43.11	-2.89
164.20	-43.14	-2.98
164.82	-43.16	-3.22
165.44	-43.15	-3.56
166.06	-43.14	-3.91
166.69	-43.12	-4.20
167.32	-43.09	-4.35
167.95	-43.07	-4.36
168.58	-43.06	-4.27
169.22	-43.06	-4.12
169.86	-43.09	-3.97
170.50	-43.15	-3.85
171.14	-43.22	-3.80
171.79	-43.30	-3.83
172.44	-43.36	-3.95
173.09	-43.38	-4.17
173.74	-43.36	-4.48
174.40	-43.32	-4.81
175.06	-43.29	-5.08
175.72	-43.28	-5.20
176.38	-43.30	-5.14
177.04	-43.35	-4.93
177.71	-43.42	-4.69
178.38	-43.47	-4.51
179.06	-43.49	-4.50
179.73	-43.48	-4.65
180.41	-43.45	-4.88
181.09	-43.41	-5.10
181.77	-43.40	-5.21
182.46	-43.41	-5.18
183.15	-43.43	-5.08
183.84	-43.46	-5.00
184.53	-43.48	-5.06
185.23	-43.50	-5.32
185.93	-43.50	-5.71
186.63	-43.49	-6.12
187.33	-43.49	-6.42
188.04	-43.50	-6.53
188.75	-43.51	-6.47
189.46	-43.53	-6.36
190.18	-43.56	-6.30
190.90	-43.59	-6.40
191.62	-43.62	-6.65
192.34	-43.65	-6.94
193.07	-43.68	-7.19
193.79	-43.69	-7.29
194.53	-43.69	-7.23
195.26	-43.68	-7.07
196.00	-43.68	-6.88
196.74	-43.68	-6.72
197.48	-43.68	-6.62
198.22	-43.69	-6.62
198.97	-43.71	-6.75
199.72	-43.73	-7.01
200.48	-43.74	-7.37
201.23	-43.76	-7.73
201.99	-43.76	-7.99
202.75	-43.76	-8.07
203.52	-43.74	-8.00
204.29	-43.71	-7.88
205.06	-43.69	-7.80
205.83	-43.66	-7.85
206.61	-43.64	-7.97
207.39	-43.64	-8.11
208.17	-43.67	-8.17
208.96	-43.72	-8.14
209.74	-43.78	-8.09
210.54	-43.83	-8.11
211.33	-43.84	-8.29
212.13	-43.82	-8.62
212.93	-43.77	-8.94
213.73	-43.72	-9.12
214.54	-43.69	-9.03
215.35	-43.68	-8.77
216.16	-43.69	-8.50
216.98	-43.74	-8.40
217.80	-43.82	-8.57
218.62	-43.90	-8.88
219.44	-43.94	-9.19
220.27	-43.92	-9.36
221.10	-43.85	-9.40
221.94	-43.78	-9.41
222.77	-43.76	-9.48
223.61	-43.80	-9.66
224.46	-43.89	-9.85
225.30	-43.96	-9.95
226.15	-43.99	-9.84
227.01	-43.97	-9.57
227.86	-43.94	-9.32
228.72	-43.94	-9.25
229.59	-43.96	-9.43
230.45	-44.00	-9.72
231.32	-44.03	-9.97
232.20	-44.00	-10.03
233.07	-43.95	-9.97
233.95	-43.90	-9.93
234.84	-43.87	-10.06
235.72	-43.88	-10.36
236.61	-43.90	-10.70
237.50	-43.89	-10.93
238.40	-43.86	-10.98
239.30	-43.82	-10.96
240.20	-43.80	-10.98
241.11	-43.80	-11.13
242.02	-43.84	-11.38
242.93	-43.89	-11.64
243.85	-43.93	-11.86
244.77	-43.96	-12.00
245.69	-43.96	-12.10
246.62	-43.92	-12.14
247.55	-43.86	-12.16
248.48	-43.82	-12.16
249.42	-43.81	-12.17
250.36	-43.85	-12.19
251.31	-43.92	-12.23
252.26	-43.99	-12.31
253.21	-44.03	-12.43
254.16	-44.04	-12.59
255.12	-44.01	-12.80
256.09	-43.94	-13.02
257.05	-43.89	-13.19
258.02	-43.87	-13.25
259.00	-43.93	-13.20
259.97	-44.01	-13.19
260.95	-44.08	-13.41
261.94	-44.10	-13.89
262.93	-44.09	-14.38
263.92	-44.03	-14.58
264.92	-43.95	-14.38
265.92	-43.89	-14.07
266.92	-43.89	-14.01
267.93	-43.97	-14.30
268.94	-44.07	-14.68
269.95	-44.12	-14.86
270.97	-44.10	-14.75
271.99	-44.05	-14.62
273.02	-44.00	-14.71
274.05	-43.99	-15.02
275.08	-43.99	-15.29
276.12	-44.01	-15.32
277.16	-44.04	-15.17
278.21	-44.07	-15.14
279.26	-44.08	-15.44
280.31	-44.09	-15.91
281.37	-44.11	-16.24
282.43	-44.15	-16.27
283.50	-44.20	-16.19
284.57	-44.22	-16.27
285.64	-44.22	-16.58
286.72	-44.21	-16.89
287.80	-44.21	-16.97
288.89	-44.24	-16.78
289.98	-44.26	-16.48
291.07	-44.26	-16.22
292.17	-44.25	-16.15
293.27	-44.22	-16.46
294.38	-44.20	-17.11
295.49	-44.18	-17.66
296.61	-44.16	-17.69
297.73	-44.16	-17.26
298.85	-44.18	-16.81
299.98	-44.23	-16.70
301.11	-44.27	-16.94
302.25	-44.27	-17.47
303.39	-44.22	-18.09
304.53	-44.19	-18.45
305.68	-44.19	-18.29
306.83	-44.24	-17.88
307.99	-44.30	-17.77
309.15	-44.36	-18.14
310.32	-44.36	-18.67
311.49	-44.28	-19.01
312.67	-44.17	-19.13
313.85	-44.14	-19.15
315.03	-44.23	-19.16
316.22	-44.33	-19.17
317.41	-44.33	-19.21
318.61	-44.27	-19.37
319.81	-44.23	-19.72
321.02	-44.23	-20.20
322.23	-44.27	-20.56
323.45	-44.34	-20.60
324.67	-44.41	-20.51
325.89	-44.45	-20.60
327.12	-44.48	-20.87
328.36	-44.52	-21.06
329.60	-44.59	-21.04
330.84	-44.64	-20.94
332.09	-44.62	-20.91
333.34	-44.57	-20.97
334.60	-44.56	-21.02
335.86	-44.59	-21.01
337.13	-44.66	-20.85
338.40	-44.71	-20.56
339.68	-44.72	-20.45
340.96	-44.64	-20.78
342.25	-44.55	-21.16
343.54	-44.54	-21.01
344.83	-44.63	-20.46
346.14	-44.73	-20.19
347.44	-44.77	-20.47
348.75	-44.74	-20.83
350.07	-44.64	-20.93
351.39	-44.57	-20.90
352.72	-44.61	-20.94
354.05	-44.70	-21.16
355.38	-44.73	-21.56
356.72	-44.68	-21.84
358.07	-44.61	-21.47
359.42	-44.55	-20.68
360.78	-44.54	-20.55
362.14	-44.59	-21.35
363.51	-44.65	-22.03
364.88	-44.68	-21.87
366.25	-44.67	-21.41
367.64	-44.63	-21.23
369.02	-44.60	-21.38
370.42	-44.60	-21.76
371.81	-44.60	-22.07
373.22	-44.59	-22.03
374.63	-44.54	-21.92
376.04	-44.48	-22.19
377.46	-44.44	-22.61
378.88	-44.43	-22.67
380.31	-44.45	-22.44
381.75	-44.43	-22.40
383.19	-44.39	-22.77
384.63	-44.38	-23.50
386.09	-44.41	-24.09
387.54	-44.44	-23.68
389.00	-44.45	-22.82
390.47	-44.46	-23.13
391.95	-44.44	-24.44
393.43	-44.39	-25.04
394.91	-44.33	-24.71
396.40	-44.37	-24.47
397.90	-44.44	-24.69
399.40	-44.41	-25.13
400.90	-44.29	-25.44
402.42	-44.23	-25.31
403.94	-44.24	-25.37
405.46	-44.31	-26.58
406.99	-44.37	-28.05
408.53	-44.35	-28.30
410.07	-44.32	-28.06
411.61	-44.40	-28.66
413.17	-44.54	-29.57
414.73	-44.66	-29.98
416.29	-44.75	-29.84
417.86	-44.82	-29.40
419.44	-44.87	-29.08
421.02	-44.92	-29.09
422.61	-45.00	-29.10
424.21	-45.08	-29.02
425.81	-45.09	-29.01
427.41	-45.05	-29.15
