Freq[Hz]	[dBV]	Phase[Deg]
10.00	-53.70	175.71
10.04	-53.69	176.66
10.08	-53.67	177.62
10.11	-53.66	178.58
10.15	-53.65	179.55
10.19	-53.63	-179.48
10.23	-53.62	-178.50
10.27	-53.61	-177.52
10.31	-53.60	-176.53
10.34	-53.60	-175.52
10.38	-53.59	-174.51
10.42	-53.59	-173.49
10.46	-53.59	-172.46
10.50	-53.59	-171.42
10.54	-53.59	-170.36
10.58	-53.60	-169.29
10.62	-53.60	-168.21
10.66	-53.61	-167.11
10.70	-53.63	-165.99
10.74	-53.65	-164.86
10.78	-53.67	-163.71
10.82	-53.69	-162.54
10.86	-53.72	-161.35
10.90	-53.75	-160.14
10.95	-53.79	-158.91
10.99	-53.83	-157.65
11.03	-53.87	-156.37
11.07	-53.92	-155.07
11.11	-53.98	-153.74
11.15	-54.04	-152.38
11.20	-54.11	-150.99
11.24	-54.18	-149.57
11.28	-54.26	-148.13
11.32	-54.34	-146.65
11.37	-54.43	-145.13
11.41	-54.53	-143.59
11.45	-54.63	-142.00
11.50	-54.74	-140.38
11.54	-54.86	-138.72
11.58	-54.99	-137.02
11.63	-55.13	-135.28
11.67	-55.27	-133.50
11.71	-55.42	-131.67
11.76	-55.58	-129.79
11.80	-55.75	-127.87
11.85	-55.93	-125.91
11.89	-56.12	-123.91
11.94	-56.31	-121.87
11.98	-56.52	-119.78
12.03	-56.73	-117.66
12.07	-56.95	-115.51
12.12	-57.17	-113.32
12.16	-57.40	-111.09
12.21	-57.64	-108.84
12.26	-57.89	-106.56
12.30	-58.14	-104.25
12.35	-58.39	-101.92
12.39	-58.66	-99.56
12.44	-58.92	-97.18
12.49	-59.19	-94.79
12.54	-59.47	-92.37
12.58	-59.75	-89.94
12.63	-60.03	-87.50
12.68	-60.32	-85.05
12.73	-60.61	-82.59
12.77	-60.90	-80.12
12.82	-61.20	-77.65
12.87	-61.49	-75.18
12.92	-61.79	-72.71
12.97	-62.09	-70.24
13.02	-62.39	-67.78
13.07	-62.69	-65.33
13.12	-62.99	-62.89
13.16	-63.28	-60.46
13.21	-63.58	-58.05
13.26	-63.88	-55.67
13.31	-64.17	-53.30
13.36	-64.46	-50.96
13.41	-64.75	-48.65
13.47	-65.03	-46.37
13.52	-65.31	-44.13
13.57	-65.58	-41.93
13.62	-65.85	-39.76
13.67	-66.11	-37.65
13.72	-66.37	-35.58
13.77	-66.62	-33.56
13.83	-66.86	-31.61
13.88	-67.10	-29.71
13.93	-67.32	-27.87
13.98	-67.53	-26.10
14.04	-67.74	-24.41
14.09	-67.93	-22.78
14.14	-68.11	-21.24
14.19	-68.28	-19.78
14.25	-68.44	-18.41
14.30	-68.59	-17.13
14.36	-68.71	-15.95
14.41	-68.83	-14.87
14.46	-68.93	-13.89
14.52	-69.01	-13.03
14.57	-69.07	-12.28
14.63	-69.12	-11.64
14.68	-69.14	-11.14
14.74	-69.15	-10.76
14.80	-69.14	-10.49
14.85	-69.11	-10.35
14.91	-69.07	-10.32
14.96	-69.00	-10.41
15.02	-68.93	-10.60
15.08	-68.83	-10.89
15.13	-68.72	-11.29
15.19	-68.60	-11.78
15.25	-68.47	-12.37
15.31	-68.32	-13.04
15.36	-68.16	-13.80
15.42	-67.99	-14.64
15.48	-67.81	-15.56
15.54	-67.62	-16.55
15.60	-67.42	-17.60
15.66	-67.21	-18.72
15.71	-67.00	-19.90
15.77	-66.78	-21.12
15.83	-66.56	-22.40
15.89	-66.33	-23.72
15.95	-66.10	-25.08
16.01	-65.87	-26.47
16.07	-65.63	-27.88
16.13	-65.40	-29.32
16.19	-65.17	-30.77
16.26	-64.94	-32.23
16.32	-64.71	-33.69
16.38	-64.49	-35.15
16.44	-64.27	-36.60
16.50	-64.06	-38.04
16.56	-63.86	-39.45
16.63	-63.66	-40.84
16.69	-63.48	-42.18
16.75	-63.31	-43.49
16.82	-63.15	-44.74
16.88	-63.00	-45.94
16.94	-62.87	-47.07
17.01	-62.76	-48.13
17.07	-62.67	-49.10
17.14	-62.59	-49.99
17.20	-62.54	-50.78
17.27	-62.51	-51.47
17.33	-62.51	-52.04
17.40	-62.53	-52.49
17.46	-62.58	-52.81
17.53	-62.65	-52.98
17.59	-62.76	-53.01
17.66	-62.90	-52.88
17.73	-63.07	-52.60
17.79	-63.27	-52.18
17.86	-63.50	-51.61
17.93	-63.76	-50.91
18.00	-64.04	-50.09
18.06	-64.34	-49.14
18.13	-64.67	-48.08
18.20	-65.02	-46.90
18.27	-65.39	-45.62
18.34	-65.78	-44.25
18.41	-66.19	-42.79
18.48	-66.61	-41.24
18.55	-67.05	-39.62
18.62	-67.50	-37.93
18.69	-67.96	-36.18
18.76	-68.43	-34.37
18.83	-68.91	-32.52
18.90	-69.39	-30.64
18.97	-69.88	-28.72
19.04	-70.37	-26.78
19.11	-70.86	-24.83
19.19	-71.35	-22.88
19.26	-71.83	-20.94
19.33	-72.31	-19.01
19.40	-72.78	-17.10
19.48	-73.24	-15.23
19.55	-73.69	-13.40
19.62	-74.13	-11.63
19.70	-74.55	-9.92
19.77	-74.95	-8.29
19.85	-75.32	-6.74
19.92	-75.68	-5.29
20.00	-76.01	-3.95
20.07	-76.31	-2.72
20.15	-76.58	-1.63
20.22	-76.81	-0.68
20.30	-77.01	0.11
20.38	-77.17	0.73
20.45	-77.29	1.18
20.53	-77.36	1.43
20.61	-77.39	1.48
20.69	-77.37	1.34
20.77	-77.31	1.01
20.84	-77.21	0.50
20.92	-77.08	-0.18
21.00	-76.91	-1.03
21.08	-76.70	-2.04
21.16	-76.46	-3.20
21.24	-76.20	-4.51
21.32	-75.91	-5.95
21.40	-75.59	-7.51
21.48	-75.26	-9.20
21.56	-74.90	-11.00
21.64	-74.53	-12.90
21.73	-74.15	-14.89
21.81	-73.75	-16.96
21.89	-73.35	-19.11
21.97	-72.95	-21.32
22.06	-72.54	-23.59
22.14	-72.14	-25.90
22.22	-71.74	-28.24
22.31	-71.34	-30.61
22.39	-70.96	-32.98
22.47	-70.60	-35.36
22.56	-70.25	-37.73
22.64	-69.92	-40.08
22.73	-69.62	-42.39
22.82	-69.35	-44.65
22.90	-69.11	-46.86
22.99	-68.91	-48.99
23.07	-68.75	-51.04
23.16	-68.63	-53.00
23.25	-68.56	-54.84
23.34	-68.55	-56.55
23.43	-68.59	-58.12
23.51	-68.69	-59.55
23.60	-68.85	-60.81
23.69	-69.07	-61.91
23.78	-69.34	-62.85
23.87	-69.67	-63.62
23.96	-70.04	-64.23
24.05	-70.46	-64.66
24.14	-70.92	-64.93
24.23	-71.42	-65.01
24.32	-71.96	-64.92
24.42	-72.52	-64.65
24.51	-73.12	-64.19
24.60	-73.74	-63.55
24.69	-74.39	-62.72
24.79	-75.05	-61.69
24.88	-75.73	-60.48
24.97	-76.42	-59.06
25.07	-77.11	-57.45
25.16	-77.81	-55.63
25.26	-78.51	-53.60
25.35	-79.20	-51.37
25.45	-79.88	-48.92
25.54	-80.55	-46.26
25.64	-81.20	-43.39
25.74	-81.83	-40.29
25.84	-82.43	-36.96
25.93	-82.99	-33.41
26.03	-83.52	-29.63
26.13	-84.01	-25.62
26.23	-84.45	-21.36
26.33	-84.83	-16.87
26.43	-85.16	-12.13
26.53	-85.43	-7.16
26.63	-85.64	-1.98
26.73	-85.80	3.40
26.83	-85.91	8.96
26.93	-85.97	14.67
27.03	-85.98	20.51
27.13	-85.95	26.46
27.23	-85.89	32.51
27.34	-85.78	38.62
27.44	-85.64	44.77
27.54	-85.47	50.94
27.65	-85.27	57.11
27.75	-85.05	63.25
27.86	-84.81	69.33
27.96	-84.55	75.33
28.07	-84.27	81.23
28.17	-83.99	86.99
28.28	-83.70	92.58
28.39	-83.41	97.99
28.49	-83.12	103.17
28.60	-82.83	108.11
28.71	-82.55	112.77
28.82	-82.29	117.11
28.93	-82.05	121.11
29.03	-81.82	124.74
29.14	-81.63	127.96
29.25	-81.46	130.74
29.36	-81.33	133.04
29.48	-81.24	134.88
29.59	-81.18	136.27
29.70	-81.16	137.24
29.81	-81.16	137.82
29.92	-81.20	138.05
30.04	-81.27	137.95
30.15	-81.37	137.55
30.26	-81.49	136.89
30.38	-81.64	135.99
30.49	-81.81	134.89
30.61	-82.00	133.63
30.72	-82.21	132.24
30.84	-82.43	130.76
30.95	-82.67	129.22
31.07	-82.93	127.66
31.19	-83.20	126.11
31.31	-83.47	124.63
31.42	-83.75	123.24
31.54	-84.04	121.99
31.66	-84.33	120.92
31.78	-84.63	120.07
31.90	-84.92	119.49
32.02	-85.20	119.22
32.14	-85.48	119.31
32.26	-85.75	119.80
32.39	-86.01	120.73
32.51	-86.26	122.08
32.63	-86.50	123.86
32.75	-86.72	126.06
32.88	-86.92	128.67
33.00	-87.11	131.68
33.13	-87.28	135.10
33.25	-87.43	138.90
33.38	-87.56	143.10
33.50	-87.67	147.67
33.63	-87.75	152.62
33.76	-87.81	157.93
33.88	-87.84	163.60
34.01	-87.85	169.61
34.14	-87.82	175.97
34.27	-87.76	-177.34
34.40	-87.67	-170.32
34.53	-87.55	-163.00
34.66	-87.39	-155.36
34.79	-87.19	-147.43
34.92	-86.95	-139.21
35.05	-86.68	-130.72
35.18	-86.36	-121.96
35.32	-85.99	-112.96
35.45	-85.59	-103.76
35.58	-85.15	-94.44
35.72	-84.68	-85.05
35.85	-84.19	-75.65
35.99	-83.67	-66.30
36.12	-83.14	-57.08
36.26	-82.60	-48.04
36.40	-82.05	-39.26
36.53	-81.51	-30.79
36.67	-80.96	-22.72
36.81	-80.43	-15.12
36.95	-79.91	-8.05
37.09	-79.41	-1.60
37.23	-78.93	4.17
37.37	-78.49	9.16
37.51	-78.09	13.31
37.65	-77.74	16.52
37.79	-77.43	18.72
37.94	-77.18	19.82
38.08	-77.00	19.73
38.22	-76.88	18.39
38.37	-76.83	15.85
38.51	-76.84	12.20
38.66	-76.91	7.52
38.80	-77.01	1.89
38.95	-77.17	-4.58
39.10	-77.35	-11.81
39.24	-77.56	-19.69
39.39	-77.79	-28.14
39.54	-78.04	-37.06
39.69	-78.29	-46.33
39.84	-78.54	-55.85
39.99	-78.78	-65.52
40.14	-79.00	-75.23
40.29	-79.20	-84.87
40.45	-79.37	-94.31
40.60	-79.49	-103.44
40.75	-79.57	-112.15
40.90	-79.58	-120.31
41.06	-79.54	-127.79
41.21	-79.42	-134.51
41.37	-79.24	-140.46
41.53	-79.00	-145.64
41.68	-78.72	-150.04
41.84	-78.40	-153.67
42.00	-78.05	-156.53
42.16	-77.68	-158.61
42.32	-77.30	-159.91
42.47	-76.92	-160.43
42.63	-76.55	-160.18
42.80	-76.20	-159.14
42.96	-75.87	-157.33
43.12	-75.59	-154.73
43.28	-75.36	-151.36
43.45	-75.19	-147.20
43.61	-75.09	-142.27
43.77	-75.07	-136.55
43.94	-75.15	-130.05
44.10	-75.33	-122.79
44.27	-75.61	-114.86
44.44	-75.97	-106.39
44.61	-76.40	-97.50
44.77	-76.89	-88.31
44.94	-77.43	-78.95
45.11	-78.00	-69.57
45.28	-78.59	-60.29
45.45	-79.19	-51.24
45.63	-79.77	-42.59
45.80	-80.34	-34.46
45.97	-80.86	-27.01
46.14	-81.33	-20.39
46.32	-81.74	-14.75
46.49	-82.05	-10.26
46.67	-82.27	-7.07
46.84	-82.37	-5.34
47.02	-82.34	-5.22
47.20	-82.18	-6.62
47.38	-81.92	-9.32
47.56	-81.55	-13.15
47.74	-81.10	-17.89
47.92	-80.58	-23.33
48.10	-80.01	-29.28
48.28	-79.41	-35.49
48.46	-78.78	-41.77
48.64	-78.15	-47.87
48.83	-77.53	-53.56
49.01	-76.94	-58.61
49.20	-76.39	-62.77
49.38	-75.92	-65.80
49.57	-75.52	-67.43
49.75	-75.23	-67.42
49.94	-75.06	-65.51
50.13	-75.00	-61.73
50.32	-75.04	-56.22
50.51	-75.17	-49.12
50.70	-75.37	-40.61
50.89	-75.63	-30.83
51.08	-75.93	-19.96
51.28	-76.24	-8.16
51.47	-76.57	4.40
51.66	-76.88	17.53
51.86	-77.17	31.07
52.05	-77.40	44.82
52.25	-77.58	58.59
52.45	-77.67	72.20
52.65	-77.65	85.44
52.85	-77.52	98.12
53.04	-77.25	110.12
53.24	-76.88	121.39
53.45	-76.40	131.89
53.65	-75.83	141.56
53.85	-75.18	150.36
54.05	-74.46	158.25
54.26	-73.69	165.17
54.46	-72.88	171.07
54.67	-72.04	175.90
54.87	-71.18	179.60
55.08	-70.32	-177.87
55.29	-69.48	-176.58
55.50	-68.66	-176.57
55.71	-67.88	-177.92
55.92	-67.16	179.39
56.13	-66.49	175.46
56.34	-65.87	170.41
56.55	-65.32	164.39
56.77	-64.82	157.52
56.98	-64.38	149.95
57.19	-64.00	141.82
57.41	-63.68	133.27
57.63	-63.42	124.45
57.84	-63.23	115.51
58.06	-63.10	106.62
58.28	-63.04	97.93
58.50	-63.04	89.60
58.72	-63.11	81.79
58.94	-63.26	74.56
59.17	-63.47	67.87
59.39	-63.76	61.69
59.61	-64.12	55.98
59.84	-64.57	50.70
60.06	-65.09	45.82
60.29	-65.70	41.29
60.52	-66.39	37.08
60.75	-67.17	33.13
60.98	-68.04	29.41
61.21	-69.01	25.88
61.44	-70.07	22.49
61.67	-71.22	19.19
61.90	-72.46	16.00
62.14	-73.75	12.96
62.37	-75.08	10.12
62.61	-76.40	7.52
62.84	-77.70	5.22
63.08	-78.94	3.27
63.32	-80.10	1.71
63.56	-81.14	0.60
63.80	-82.04	0.00
64.04	-82.76	-0.05
64.28	-83.28	0.52
64.52	-83.55	1.76
64.76	-83.56	3.70
65.01	-83.34	6.30
65.25	-82.92	9.53
65.50	-82.31	13.35
65.75	-81.55	17.72
66.00	-80.67	22.58
66.24	-79.69	27.91
66.49	-78.65	33.66
66.75	-77.57	39.78
67.00	-76.49	46.23
67.25	-75.43	52.96
67.50	-74.43	59.92
67.76	-73.51	67.01
68.01	-72.64	74.08
68.27	-71.83	80.96
68.53	-71.07	87.51
68.79	-70.33	93.54
69.05	-69.62	98.90
69.31	-68.93	103.40
69.57	-68.23	106.88
69.83	-67.53	109.14
70.09	-66.80	110.01
70.36	-66.05	109.29
70.62	-65.26	106.90
70.89	-64.44	102.98
71.16	-63.61	97.71
71.43	-62.77	91.28
71.70	-61.96	83.90
71.97	-61.17	75.75
72.24	-60.42	67.05
72.51	-59.73	57.99
72.79	-59.11	48.80
73.06	-58.58	39.69
73.34	-58.15	30.88
73.61	-57.84	22.46
73.89	-57.66	14.31
74.17	-57.61	6.29
74.45	-57.71	-1.76
74.73	-57.98	-9.98
75.01	-58.42	-18.53
75.29	-59.04	-27.55
75.58	-59.86	-37.22
75.86	-60.90	-47.69
76.15	-62.15	-59.14
76.44	-63.63	-71.64
76.73	-65.29	-84.81
77.02	-67.07	-98.13
77.31	-68.90	-111.06
77.60	-70.70	-123.05
77.89	-72.43	-133.52
78.18	-73.99	-141.90
78.48	-75.34	-147.61
78.78	-76.38	-150.02
79.07	-77.04	-148.54
79.37	-77.28	-142.70
79.67	-77.11	-132.99
79.97	-76.63	-120.22
80.27	-75.90	-105.22
80.58	-74.99	-88.85
80.88	-73.98	-71.98
81.19	-72.96	-55.49
81.49	-72.00	-40.30
81.80	-71.18	-27.34
82.11	-70.59	-17.57
82.42	-70.28	-11.51
82.73	-70.21	-8.90
83.04	-70.36	-9.34
83.35	-70.70	-12.43
83.67	-71.18	-17.78
83.99	-71.77	-24.95
84.30	-72.43	-33.54
84.62	-73.12	-43.09
84.94	-73.81	-53.17
85.26	-74.46	-63.37
85.58	-75.04	-73.49
85.90	-75.54	-83.39
86.23	-75.94	-92.94
86.55	-76.23	-102.00
86.88	-76.39	-110.44
87.21	-76.39	-118.09
87.54	-76.22	-124.83
87.87	-75.87	-130.49
88.20	-75.31	-134.94
88.53	-74.61	-138.18
88.87	-73.84	-140.25
89.20	-73.05	-141.18
89.54	-72.32	-141.00
89.88	-71.73	-139.76
90.22	-71.36	-137.48
90.56	-71.27	-134.21
90.90	-71.54	-129.99
91.24	-72.21	-124.91
91.59	-73.21	-119.19
91.93	-74.46	-113.07
92.28	-75.87	-106.80
92.63	-77.35	-100.61
92.98	-78.81	-94.76
93.33	-80.17	-89.52
93.68	-81.33	-85.14
94.03	-82.21	-81.87
94.39	-82.78	-79.78
94.74	-83.07	-78.83
95.10	-83.07	-79.00
95.46	-82.81	-80.25
95.82	-82.30	-82.56
96.18	-81.55	-85.91
96.54	-80.58	-90.25
96.91	-79.41	-95.54
97.27	-78.08	-101.55
97.64	-76.68	-107.91
98.01	-75.30	-114.23
98.38	-74.02	-120.12
98.75	-72.92	-125.19
99.12	-72.11	-129.02
99.50	-71.67	-131.19
99.87	-71.69	-131.33
100.25	-72.13	-129.67
100.63	-72.91	-126.80
101.01	-73.92	-123.32
101.39	-75.06	-119.85
101.77	-76.24	-117.03
102.16	-77.34	-115.50
102.54	-78.26	-115.94
102.93	-78.90	-118.77
103.32	-79.27	-123.53
103.71	-79.39	-129.49
104.10	-79.26	-135.92
104.49	-78.91	-142.07
104.88	-78.36	-147.17
105.28	-77.62	-150.42
105.68	-76.72	-151.07
106.08	-75.73	-149.16
106.48	-74.80	-145.51
106.88	-74.05	-140.99
107.28	-73.62	-136.49
107.69	-73.67	-132.92
108.09	-74.33	-131.20
108.50	-75.76	-132.30
108.91	-77.97	-136.60
109.32	-80.75	-143.40
109.73	-83.81	-151.85
110.15	-86.90	-161.08
110.56	-89.72	-170.20
110.98	-92.01	-178.31
111.40	-93.46	175.54
111.82	-93.90	171.98
112.24	-93.45	170.98
112.67	-92.28	172.36
113.09	-90.56	175.97
113.52	-88.46	-178.37
113.95	-86.15	-170.84
114.38	-83.83	-161.60
114.81	-81.62	-151.01
115.24	-79.60	-139.68
115.68	-77.81	-128.28
116.11	-76.32	-117.51
116.55	-75.18	-108.05
116.99	-74.44	-100.62
117.43	-74.18	-95.94
117.87	-74.39	-94.27
118.32	-75.04	-95.48
118.77	-76.10	-99.45
119.21	-77.53	-106.03
119.66	-79.30	-115.07
120.12	-81.36	-126.42
120.57	-83.66	-139.69
121.02	-86.04	-153.44
121.48	-88.29	-165.95
121.94	-90.24	-175.48
122.40	-91.67	179.79
122.86	-92.38	-178.32
123.32	-92.18	-168.11
123.79	-91.12	-150.54
124.26	-89.42	-128.74
124.73	-87.33	-105.94
125.20	-85.08	-85.46
125.67	-82.94	-70.67
126.14	-81.16	-65.00
126.62	-79.88	-69.60
127.10	-79.06	-82.10
127.58	-78.65	-99.84
128.06	-78.60	-120.05
128.54	-78.84	-139.94
129.03	-79.33	-156.65
129.51	-80.01	-168.50
130.00	-80.81	-176.32
130.49	-81.67	178.77
130.98	-82.53	175.63
131.48	-83.31	173.07
131.98	-83.96	169.90
132.47	-84.42	165.58
132.97	-84.66	160.74
133.48	-84.64	156.17
133.98	-84.33	152.66
134.48	-83.71	151.03
134.99	-82.74	152.09
135.50	-81.45	155.83
136.01	-79.95	161.26
136.53	-78.36	167.33
137.04	-76.78	172.93
137.56	-75.33	176.97
138.08	-74.12	178.38
138.60	-73.19	176.78
139.12	-72.53	172.14
139.65	-72.14	164.44
140.17	-71.99	153.68
140.70	-72.08	139.84
141.23	-72.38	123.15
141.77	-72.83	104.52
142.30	-73.34	84.95
142.84	-73.84	65.51
143.38	-74.22	47.26
143.92	-74.44	31.31
144.46	-74.56	18.97
145.01	-74.75	11.69
145.55	-75.21	10.96
146.10	-76.12	18.27
146.65	-77.66	35.18
147.21	-79.79	61.43
147.76	-82.08	93.79
148.32	-84.03	128.68
148.88	-85.16	162.43
149.44	-84.94	-168.73
150.01	-83.14	-147.45
150.57	-80.46	-132.31
151.14	-77.83	-120.96
151.71	-76.19	-111.01
152.28	-76.52	-100.00
152.86	-79.54	-86.00
153.43	-84.48	-70.19
154.01	-90.02	-54.84
154.59	-94.83	-42.30
155.18	-97.54	-34.97
155.76	-97.01	-34.80
156.35	-93.70	-40.62
156.94	-88.77	-49.90
157.53	-83.42	-60.08
158.13	-78.85	-68.50
158.72	-76.11	-73.04
159.32	-75.05	-74.79
159.93	-75.10	-76.09
160.53	-75.67	-79.31
161.13	-76.16	-86.90
161.74	-76.08	-100.33
162.35	-75.51	-117.12
162.97	-74.65	-133.72
163.58	-73.72	-146.48
164.20	-72.91	-151.71
164.82	-72.43	-148.02
165.44	-72.36	-139.05
166.06	-72.81	-129.22
166.69	-73.86	-123.01
167.32	-75.60	-124.82
167.95	-77.84	-134.96
168.58	-80.07	-149.70
169.22	-81.79	-165.07
169.86	-82.47	-177.03
170.50	-81.74	177.82
171.14	-80.01	178.87
171.79	-77.97	-175.90
172.44	-76.34	-168.56
173.09	-75.84	-161.18
173.74	-76.65	-155.32
174.40	-78.22	-151.66
175.06	-79.89	-150.84
175.72	-81.01	-153.53
176.38	-81.06	-160.00
177.04	-80.36	-168.47
177.71	-79.52	-176.41
178.38	-79.18	178.78
179.06	-79.93	179.61
179.73	-81.70	-174.47
180.41	-83.68	-167.02
181.09	-85.04	-161.81
181.77	-84.92	-162.70
182.46	-82.98	-171.17
183.15	-80.08	176.81
183.84	-77.23	166.17
184.53	-75.51	161.91
185.23	-75.68	167.51
185.93	-77.13	178.65
186.63	-78.78	-171.39
187.33	-79.54	-169.50
188.04	-78.46	178.37
188.75	-75.92	155.19
189.46	-73.00	128.48
190.18	-70.78	105.94
190.90	-70.32	94.79
191.62	-71.60	93.60
192.34	-73.92	94.96
193.07	-76.51	91.17
193.79	-78.66	75.04
194.53	-80.21	49.43
195.26	-81.50	25.27
196.00	-82.89	13.96
196.74	-84.68	26.16
197.48	-86.74	58.20
198.22	-88.50	95.11
198.97	-89.40	121.31
199.72	-88.92	122.12
200.48	-87.27	97.34
201.23	-85.14	56.24
201.99	-83.24	8.50
202.75	-82.23	-36.57
203.52	-82.10	-73.71
204.29	-82.55	-99.51
205.06	-83.30	-110.47
205.83	-84.04	-105.30
206.61	-84.59	-92.47
207.39	-84.74	-83.31
208.17	-84.33	-89.39
208.96	-83.34	-114.98
209.74	-82.19	-147.87
210.54	-81.36	-173.37
211.33	-81.32	-177.07
212.13	-82.03	-158.42
212.93	-82.92	-131.39
213.73	-83.40	-110.92
214.54	-82.99	-109.84
215.35	-82.03	-124.93
216.16	-81.24	-146.14
216.98	-81.34	-163.20
217.80	-82.62	-170.30
218.62	-84.31	-171.39
219.44	-85.54	-171.76
220.27	-85.46	-176.41
221.10	-84.12	175.06
221.94	-82.17	166.71
222.77	-80.28	162.77
223.61	-79.02	165.23
224.46	-78.63	170.01
225.30	-79.31	171.90
226.15	-81.17	166.10
227.01	-83.48	153.78
227.86	-84.91	140.03
228.72	-84.13	130.10
229.59	-80.80	126.18
230.45	-76.68	124.15
231.32	-73.82	119.03
232.20	-73.89	107.14
233.07	-76.16	93.28
233.95	-78.92	85.61
234.84	-80.49	92.00
235.72	-80.65	110.60
236.61	-80.62	130.07
237.50	-81.67	138.49
238.40	-84.29	130.51
239.30	-87.29	115.10
240.20	-89.21	103.23
241.11	-88.95	103.20
242.02	-87.02	110.43
242.93	-84.43	116.58
243.85	-82.14	114.25
244.77	-80.53	106.26
245.69	-79.70	100.82
246.62	-79.72	105.81
247.55	-80.29	118.72
248.48	-80.78	128.07
249.42	-80.57	122.20
250.36	-79.64	101.31
251.31	-78.72	80.43
252.26	-78.62	75.63
253.21	-79.50	90.73
254.16	-80.51	109.23
255.12	-80.67	112.50
256.09	-79.62	93.17
257.05	-78.17	66.47
258.02	-77.29	50.58
259.00	-77.65	54.13
259.97	-79.28	64.66
260.95	-82.12	66.69
261.94	-85.60	53.69
262.93	-88.17	38.82
263.92	-88.11	38.02
264.92	-85.15	56.82
265.92	-81.99	79.80
266.92	-81.70	88.92
267.93	-85.13	78.62
268.94	-89.43	64.29
269.95	-91.42	63.27
270.97	-90.04	80.80
271.99	-87.03	106.53
273.02	-84.24	129.21
274.05	-82.30	143.54
275.08	-80.63	149.71
276.12	-78.71	148.15
277.16	-76.78	140.15
278.21	-75.51	127.44
279.26	-75.40	112.05
280.31	-75.79	97.02
281.37	-75.56	85.85
282.43	-74.14	80.28
283.50	-72.56	76.86
284.57	-72.14	71.20
285.64	-73.14	62.29
286.72	-74.32	54.11
287.80	-74.40	50.68
288.89	-73.64	50.70
289.98	-73.41	49.05
291.07	-74.70	42.02
292.17	-76.54	33.42
293.27	-77.36	29.36
294.38	-76.67	31.18
295.49	-76.03	31.31
296.61	-77.05	22.02
297.73	-79.17	7.72
298.85	-80.26	1.67
299.98	-78.85	11.96
301.11	-76.45	25.48
302.25	-75.24	24.24
303.39	-75.91	7.40
304.53	-77.30	-4.62
305.68	-78.31	5.06
306.83	-79.23	21.48
307.99	-80.88	17.56
309.15	-83.39	-9.39
310.32	-85.78	-21.93
311.49	-87.09	14.13
312.67	-87.26	77.56
313.85	-86.65	122.08
315.03	-85.29	125.04
316.22	-82.61	104.11
317.41	-78.29	79.25
318.61	-74.06	58.34
319.81	-72.41	44.34
321.02	-73.73	36.38
322.23	-75.53	28.47
323.45	-75.74	15.61
324.67	-75.22	-0.94
325.89	-75.57	-17.93
327.12	-76.91	-28.80
328.36	-78.08	-24.15
329.60	-78.30	-3.22
330.84	-77.77	14.08
332.09	-76.87	8.96
333.34	-76.29	-6.66
334.60	-76.77	-8.60
335.86	-77.93	4.79
337.13	-78.18	11.21
338.40	-76.78	-1.57
339.68	-75.30	-17.50
340.96	-75.32	-19.73
342.25	-76.35	-14.01
343.54	-77.17	-13.91
344.83	-77.19	-21.16
346.14	-76.36	-27.92
347.44	-75.08	-29.75
348.75	-74.47	-28.10
350.07	-75.13	-25.63
351.39	-75.85	-27.13
352.72	-75.34	-36.52
354.05	-74.17	-49.74
355.38	-73.49	-60.17
356.72	-73.37	-67.58
358.07	-73.17	-75.84
359.42	-73.22	-85.88
360.78	-74.90	-95.42
362.14	-78.14	-101.67
363.51	-80.43	-101.35
364.88	-80.37	-94.52
366.25	-80.11	-89.85
367.64	-81.52	-94.03
369.02	-83.51	-101.08
370.42	-84.78	-105.16
371.81	-86.83	-116.87
373.22	-91.27	-150.97
374.63	-93.84	147.78
376.04	-88.77	61.77
377.46	-80.79	-20.95
378.88	-79.47	-61.64
380.31	-82.83	-64.85
381.75	-81.95	-63.12
383.19	-78.07	-80.99
384.63	-79.51	-133.53
386.09	-84.84	174.61
387.54	-85.04	-164.83
389.00	-82.38	-89.58
390.47	-88.23	-51.38
391.95	-98.28	-61.47
393.43	-95.45	-61.38
394.91	-82.89	-38.07
396.40	-79.98	-17.88
397.90	-86.12	-10.13
399.40	-85.69	-10.42
400.90	-78.82	-23.40
