Freq[Hz]	[dBV]	Phase[Deg]
10.00	-62.81	76.33
10.04	-62.99	78.68
10.08	-63.17	81.04
10.11	-63.35	83.40
10.15	-63.53	85.77
10.19	-63.71	88.14
10.23	-63.89	90.52
10.27	-64.08	92.89
10.31	-64.26	95.27
10.34	-64.44	97.64
10.38	-64.62	100.01
10.42	-64.80	102.38
10.46	-64.98	104.74
10.50	-65.16	107.09
10.54	-65.34	109.43
10.58	-65.52	111.76
10.62	-65.70	114.09
10.66	-65.88	116.39
10.70	-66.05	118.68
10.74	-66.22	120.96
10.78	-66.39	123.21
10.82	-66.56	125.44
10.86	-66.73	127.65
10.90	-66.89	129.84
10.95	-67.05	132.00
10.99	-67.21	134.13
11.03	-67.36	136.24
11.07	-67.52	138.31
11.11	-67.66	140.34
11.15	-67.81	142.34
11.20	-67.94	144.30
11.24	-68.08	146.22
11.28	-68.21	148.10
11.32	-68.33	149.93
11.37	-68.45	151.72
11.41	-68.57	153.45
11.45	-68.67	155.14
11.50	-68.77	156.76
11.54	-68.87	158.34
11.58	-68.96	159.85
11.63	-69.04	161.30
11.67	-69.11	162.68
11.71	-69.18	164.00
11.76	-69.24	165.25
11.80	-69.29	166.43
11.85	-69.33	167.54
11.89	-69.37	168.58
11.94	-69.40	169.56
11.98	-69.42	170.46
12.03	-69.43	171.31
12.07	-69.43	172.08
12.12	-69.43	172.79
12.16	-69.42	173.44
12.21	-69.41	174.03
12.26	-69.38	174.55
12.30	-69.35	175.02
12.35	-69.31	175.43
12.39	-69.27	175.77
12.44	-69.22	176.06
12.49	-69.16	176.30
12.54	-69.10	176.48
12.58	-69.03	176.60
12.63	-68.95	176.68
12.68	-68.87	176.70
12.73	-68.78	176.67
12.77	-68.69	176.60
12.82	-68.59	176.47
12.87	-68.48	176.31
12.92	-68.37	176.09
12.97	-68.26	175.84
13.02	-68.14	175.54
13.07	-68.02	175.21
13.12	-67.89	174.84
13.16	-67.75	174.43
13.21	-67.62	173.98
13.26	-67.47	173.51
13.31	-67.33	173.00
13.36	-67.18	172.47
13.41	-67.03	171.91
13.47	-66.87	171.32
13.52	-66.71	170.71
13.57	-66.55	170.08
13.62	-66.39	169.43
13.67	-66.22	168.76
13.72	-66.05	168.08
13.77	-65.88	167.39
13.83	-65.71	166.69
13.88	-65.53	165.98
13.93	-65.36	165.27
13.98	-65.18	164.55
14.04	-65.01	163.83
14.09	-64.83	163.12
14.14	-64.65	162.41
14.19	-64.48	161.71
14.25	-64.30	161.02
14.30	-64.13	160.34
14.36	-63.95	159.68
14.41	-63.78	159.04
14.46	-63.61	158.43
14.52	-63.44	157.84
14.57	-63.28	157.27
14.63	-63.11	156.74
14.68	-62.95	156.25
14.74	-62.80	155.79
14.80	-62.64	155.37
14.85	-62.49	154.98
14.91	-62.34	154.62
14.96	-62.20	154.30
15.02	-62.06	154.02
15.08	-61.92	153.76
15.13	-61.78	153.54
15.19	-61.65	153.35
15.25	-61.52	153.19
15.31	-61.40	153.06
15.36	-61.27	152.96
15.42	-61.15	152.88
15.48	-61.04	152.84
15.54	-60.92	152.82
15.60	-60.81	152.82
15.66	-60.70	152.85
15.71	-60.59	152.90
15.77	-60.49	152.98
15.83	-60.38	153.08
15.89	-60.28	153.19
15.95	-60.19	153.33
16.01	-60.09	153.49
16.07	-60.00	153.66
16.13	-59.91	153.85
16.19	-59.82	154.06
16.26	-59.73	154.28
16.32	-59.65	154.51
16.38	-59.56	154.76
16.44	-59.48	155.02
16.50	-59.40	155.28
16.56	-59.33	155.55
16.63	-59.25	155.83
16.69	-59.17	156.12
16.75	-59.10	156.41
16.82	-59.03	156.70
16.88	-58.96	156.99
16.94	-58.89	157.28
17.01	-58.82	157.57
17.07	-58.75	157.86
17.14	-58.69	158.14
17.20	-58.62	158.41
17.27	-58.56	158.68
17.33	-58.49	158.93
17.40	-58.43	159.18
17.46	-58.36	159.41
17.53	-58.30	159.62
17.59	-58.24	159.82
17.66	-58.17	159.99
17.73	-58.11	160.15
17.79	-58.05	160.29
17.86	-57.98	160.41
17.93	-57.92	160.52
18.00	-57.86	160.61
18.06	-57.79	160.68
18.13	-57.73	160.73
18.20	-57.67	160.77
18.27	-57.60	160.79
18.34	-57.54	160.79
18.41	-57.47	160.78
18.48	-57.41	160.76
18.55	-57.34	160.72
18.62	-57.28	160.66
18.69	-57.21	160.60
18.76	-57.14	160.52
18.83	-57.08	160.42
18.90	-57.01	160.32
18.97	-56.94	160.20
19.04	-56.87	160.07
19.11	-56.80	159.93
19.19	-56.73	159.78
19.26	-56.66	159.62
19.33	-56.59	159.45
19.40	-56.52	159.27
19.48	-56.45	159.08
19.55	-56.37	158.89
19.62	-56.30	158.69
19.70	-56.22	158.48
19.77	-56.15	158.26
19.85	-56.07	158.04
19.92	-55.99	157.82
20.00	-55.91	157.59
20.07	-55.83	157.36
20.15	-55.75	157.13
20.22	-55.66	156.89
20.30	-55.58	156.66
20.38	-55.49	156.42
20.45	-55.41	156.18
20.53	-55.32	155.95
20.61	-55.23	155.72
20.69	-55.13	155.48
20.77	-55.04	155.25
20.84	-54.95	155.02
20.92	-54.85	154.79
21.00	-54.75	154.56
21.08	-54.65	154.33
21.16	-54.55	154.10
21.24	-54.45	153.87
21.32	-54.35	153.63
21.40	-54.24	153.40
21.48	-54.13	153.16
21.56	-54.03	152.91
21.64	-53.92	152.67
21.73	-53.81	152.42
21.81	-53.70	152.16
21.89	-53.59	151.90
21.97	-53.48	151.64
22.06	-53.36	151.37
22.14	-53.25	151.09
22.22	-53.14	150.81
22.31	-53.02	150.52
22.39	-52.90	150.22
22.47	-52.79	149.91
22.56	-52.67	149.59
22.64	-52.55	149.27
22.73	-52.43	148.93
22.82	-52.31	148.58
22.90	-52.19	148.22
22.99	-52.07	147.85
23.07	-51.95	147.47
23.16	-51.83	147.07
23.25	-51.71	146.66
23.34	-51.59	146.23
23.43	-51.47	145.79
23.51	-51.35	145.33
23.60	-51.23	144.85
23.69	-51.10	144.36
23.78	-50.98	143.85
23.87	-50.86	143.33
23.96	-50.74	142.78
24.05	-50.62	142.22
24.14	-50.50	141.63
24.23	-50.38	141.03
24.32	-50.26	140.41
24.42	-50.14	139.77
24.51	-50.02	139.10
24.60	-49.90	138.42
24.69	-49.78	137.71
24.79	-49.66	136.98
24.88	-49.55	136.22
24.97	-49.43	135.45
25.07	-49.31	134.65
25.16	-49.20	133.82
25.26	-49.08	132.97
25.35	-48.97	132.09
25.45	-48.85	131.19
25.54	-48.74	130.26
25.64	-48.63	129.30
25.74	-48.52	128.32
25.84	-48.41	127.31
25.93	-48.30	126.26
26.03	-48.19	125.19
26.13	-48.08	124.09
26.23	-47.98	122.96
26.33	-47.87	121.79
26.43	-47.77	120.59
26.53	-47.67	119.36
26.63	-47.57	118.10
26.73	-47.47	116.81
26.83	-47.38	115.50
26.93	-47.28	114.15
27.03	-47.19	112.78
27.13	-47.11	111.39
27.23	-47.02	109.97
27.34	-46.94	108.53
27.44	-46.87	107.07
27.54	-46.80	105.59
27.65	-46.73	104.09
27.75	-46.67	102.58
27.86	-46.61	101.05
27.96	-46.56	99.52
28.07	-46.52	97.97
28.17	-46.48	96.41
28.28	-46.45	94.84
28.39	-46.43	93.27
28.49	-46.41	91.70
28.60	-46.40	90.12
28.71	-46.40	88.54
28.82	-46.41	86.96
28.93	-46.43	85.39
29.03	-46.46	83.83
29.14	-46.50	82.27
29.25	-46.55	80.72
29.36	-46.61	79.18
29.48	-46.68	77.66
29.59	-46.76	76.16
29.70	-46.85	74.66
29.81	-46.95	73.19
29.92	-47.06	71.73
30.04	-47.18	70.29
30.15	-47.31	68.87
30.26	-47.45	67.47
30.38	-47.59	66.09
30.49	-47.75	64.73
30.61	-47.91	63.40
30.72	-48.07	62.09
30.84	-48.24	60.81
30.95	-48.42	59.56
31.07	-48.61	58.33
31.19	-48.79	57.14
31.31	-48.98	55.97
31.42	-49.18	54.83
31.54	-49.38	53.73
31.66	-49.58	52.67
31.78	-49.78	51.64
31.90	-49.99	50.64
32.02	-50.19	49.69
32.14	-50.40	48.77
32.26	-50.60	47.90
32.39	-50.81	47.07
32.51	-51.01	46.28
32.63	-51.22	45.53
32.75	-51.43	44.83
32.88	-51.64	44.17
33.00	-51.85	43.55
33.13	-52.06	42.98
33.25	-52.28	42.46
33.38	-52.51	41.98
33.50	-52.74	41.54
33.63	-52.98	41.15
33.76	-53.23	40.81
33.88	-53.48	40.51
34.01	-53.75	40.26
34.14	-54.02	40.05
34.27	-54.31	39.89
34.40	-54.61	39.78
34.53	-54.92	39.72
34.66	-55.25	39.71
34.79	-55.59	39.74
34.92	-55.95	39.82
35.05	-56.33	39.96
35.18	-56.72	40.14
35.32	-57.14	40.37
35.45	-57.57	40.66
35.58	-58.01	41.02
35.72	-58.47	41.45
35.85	-58.93	41.96
35.99	-59.40	42.56
36.12	-59.87	43.26
36.26	-60.34	44.07
36.40	-60.81	44.98
36.53	-61.28	46.02
36.67	-61.74	47.19
36.81	-62.18	48.51
36.95	-62.61	49.97
37.09	-63.02	51.59
37.23	-63.41	53.37
37.37	-63.78	55.34
37.51	-64.11	57.49
37.65	-64.42	59.84
37.79	-64.69	62.40
37.94	-64.92	65.18
38.08	-65.11	68.19
38.22	-65.25	71.43
38.37	-65.35	74.89
38.51	-65.40	78.54
38.66	-65.42	82.37
38.80	-65.39	86.35
38.95	-65.33	90.44
39.10	-65.23	94.63
39.24	-65.10	98.89
39.39	-64.93	103.19
39.54	-64.74	107.50
39.69	-64.52	111.80
39.84	-64.28	116.06
39.99	-64.01	120.24
40.14	-63.73	124.32
40.29	-63.43	128.27
40.45	-63.11	132.05
40.60	-62.78	135.63
40.75	-62.45	138.98
40.90	-62.10	142.07
41.06	-61.75	144.85
41.21	-61.41	147.32
41.37	-61.06	149.49
41.53	-60.70	151.37
41.68	-60.35	152.98
41.84	-60.00	154.34
42.00	-59.65	155.46
42.16	-59.30	156.37
42.32	-58.96	157.09
42.47	-58.61	157.63
42.63	-58.27	158.01
42.80	-57.93	158.26
42.96	-57.59	158.40
43.12	-57.26	158.44
43.28	-56.94	158.41
43.45	-56.61	158.34
43.61	-56.30	158.24
43.77	-55.99	158.14
43.94	-55.69	158.06
44.10	-55.39	158.03
44.27	-55.10	158.04
44.44	-54.82	158.09
44.61	-54.55	158.18
44.77	-54.28	158.31
44.94	-54.02	158.46
45.11	-53.76	158.64
45.28	-53.51	158.84
45.45	-53.27	159.05
45.63	-53.03	159.27
45.80	-52.80	159.50
45.97	-52.57	159.73
46.14	-52.35	159.95
46.32	-52.13	160.17
46.49	-51.91	160.37
46.67	-51.69	160.55
46.84	-51.48	160.71
47.02	-51.28	160.83
47.20	-51.07	160.92
47.38	-50.87	160.99
47.56	-50.67	161.02
47.74	-50.47	161.03
47.92	-50.27	161.01
48.10	-50.08	160.97
48.28	-49.88	160.91
48.46	-49.69	160.83
48.64	-49.50	160.73
48.83	-49.31	160.61
49.01	-49.13	160.47
49.20	-48.94	160.33
49.38	-48.76	160.17
49.57	-48.58	160.01
49.75	-48.39	159.83
49.94	-48.21	159.65
50.13	-48.03	159.47
50.32	-47.85	159.28
50.51	-47.67	159.09
50.70	-47.50	158.89
50.89	-47.32	158.69
51.08	-47.14	158.48
51.28	-46.96	158.27
51.47	-46.78	158.06
51.66	-46.61	157.84
51.86	-46.43	157.62
52.05	-46.25	157.39
52.25	-46.07	157.16
52.45	-45.89	156.93
52.65	-45.71	156.69
52.85	-45.53	156.45
53.04	-45.35	156.21
53.24	-45.17	155.96
53.45	-44.99	155.70
53.65	-44.81	155.44
53.85	-44.62	155.18
54.05	-44.44	154.90
54.26	-44.26	154.61
54.46	-44.07	154.32
54.67	-43.89	154.02
54.87	-43.70	153.70
55.08	-43.52	153.37
55.29	-43.34	153.03
55.50	-43.15	152.68
55.71	-42.97	152.31
55.92	-42.79	151.92
56.13	-42.61	151.52
56.34	-42.42	151.11
56.55	-42.24	150.68
56.77	-42.06	150.24
56.98	-41.88	149.79
57.19	-41.70	149.33
57.41	-41.51	148.85
57.63	-41.33	148.37
57.84	-41.15	147.88
58.06	-40.97	147.39
58.28	-40.78	146.89
58.50	-40.60	146.38
58.72	-40.42	145.87
58.94	-40.23	145.35
59.17	-40.05	144.83
59.39	-39.87	144.30
59.61	-39.68	143.76
59.84	-39.50	143.21
60.06	-39.31	142.65
60.29	-39.13	142.08
60.52	-38.95	141.50
60.75	-38.76	140.90
60.98	-38.58	140.28
61.21	-38.40	139.64
61.44	-38.22	138.99
61.67	-38.04	138.31
61.90	-37.86	137.61
62.14	-37.68	136.89
62.37	-37.51	136.14
62.61	-37.33	135.37
62.84	-37.16	134.57
63.08	-36.98	133.75
63.32	-36.81	132.90
63.56	-36.63	132.03
63.80	-36.46	131.12
64.04	-36.28	130.19
64.28	-36.11	129.23
64.52	-35.93	128.23
64.76	-35.75	127.21
65.01	-35.58	126.16
65.25	-35.40	125.07
65.50	-35.22	123.95
65.75	-35.05	122.80
66.00	-34.87	121.61
66.24	-34.70	120.40
66.49	-34.53	119.15
66.75	-34.36	117.87
67.00	-34.20	116.56
67.25	-34.04	115.21
67.50	-33.88	113.83
67.76	-33.73	112.41
68.01	-33.58	110.96
68.27	-33.44	109.49
68.53	-33.30	107.98
68.79	-33.17	106.44
69.05	-33.05	104.88
69.31	-32.93	103.29
69.57	-32.81	101.67
69.83	-32.70	100.03
70.09	-32.60	98.37
70.36	-32.50	96.69
70.62	-32.41	94.99
70.89	-32.32	93.27
71.16	-32.24	91.54
71.43	-32.17	89.80
71.70	-32.10	88.04
71.97	-32.05	86.28
72.24	-32.00	84.52
72.51	-31.96	82.76
72.79	-31.92	81.00
73.06	-31.90	79.25
73.34	-31.89	77.50
73.61	-31.88	75.77
73.89	-31.89	74.05
74.17	-31.90	72.35
74.45	-31.92	70.67
74.73	-31.94	69.02
75.01	-31.98	67.39
75.29	-32.01	65.80
75.58	-32.06	64.24
75.86	-32.10	62.73
76.15	-32.15	61.25
76.44	-32.20	59.83
76.73	-32.25	58.45
77.02	-32.30	57.11
77.31	-32.36	55.82
77.60	-32.42	54.57
77.89	-32.49	53.35
78.18	-32.55	52.18
78.48	-32.63	51.04
78.78	-32.70	49.94
79.07	-32.78	48.86
79.37	-32.87	47.82
79.67	-32.97	46.80
79.97	-33.06	45.81
80.27	-33.16	44.85
80.58	-33.26	43.90
80.88	-33.37	42.97
81.19	-33.47	42.06
81.49	-33.57	41.15
81.80	-33.67	40.26
82.11	-33.77	39.37
82.42	-33.86	38.49
82.73	-33.95	37.62
83.04	-34.04	36.75
83.35	-34.13	35.90
83.67	-34.21	35.07
83.99	-34.29	34.25
84.30	-34.38	33.46
84.62	-34.46	32.69
84.94	-34.55	31.94
85.26	-34.64	31.23
85.58	-34.73	30.55
85.90	-34.82	29.89
86.23	-34.91	29.26
86.55	-35.00	28.66
86.88	-35.09	28.08
87.21	-35.18	27.53
87.54	-35.27	27.00
87.87	-35.36	26.49
88.20	-35.44	25.99
88.53	-35.53	25.52
88.87	-35.61	25.06
89.20	-35.69	24.62
89.54	-35.76	24.19
89.88	-35.84	23.76
90.22	-35.91	23.35
90.56	-35.99	22.95
90.90	-36.06	22.54
91.24	-36.13	22.15
91.59	-36.20	21.75
91.93	-36.26	21.36
92.28	-36.33	20.97
92.63	-36.39	20.57
92.98	-36.45	20.18
93.33	-36.52	19.79
93.68	-36.58	19.39
94.03	-36.64	19.00
94.39	-36.69	18.60
94.74	-36.75	18.21
95.10	-36.81	17.82
95.46	-36.86	17.44
95.82	-36.92	17.08
96.18	-36.98	16.73
96.54	-37.03	16.41
96.91	-37.09	16.10
97.27	-37.15	15.82
97.64	-37.21	15.57
98.01	-37.26	15.32
98.38	-37.32	15.10
98.75	-37.39	14.88
99.12	-37.45	14.67
99.50	-37.51	14.46
99.87	-37.58	14.25
100.25	-37.64	14.04
100.63	-37.71	13.83
101.01	-37.77	13.62
101.39	-37.83	13.40
101.77	-37.88	13.19
102.16	-37.93	12.97
102.54	-37.97	12.75
102.93	-38.00	12.52
103.32	-38.03	12.30
103.71	-38.05	12.09
104.10	-38.07	11.88
104.49	-38.09	11.69
104.88	-38.12	11.51
105.28	-38.15	11.36
105.68	-38.20	11.23
106.08	-38.25	11.12
106.48	-38.32	11.01
106.88	-38.39	10.91
107.28	-38.46	10.79
107.69	-38.53	10.63
108.09	-38.59	10.44
108.50	-38.65	10.19
108.91	-38.70	9.87
109.32	-38.73	9.51
109.73	-38.77	9.13
110.15	-38.80	8.74
110.56	-38.82	8.37
110.98	-38.85	8.03
111.40	-38.88	7.74
111.82	-38.91	7.52
112.24	-38.94	7.36
112.67	-38.97	7.25
113.09	-39.01	7.17
113.52	-39.05	7.11
113.95	-39.08	7.06
114.38	-39.12	7.01
114.81	-39.16	6.94
115.24	-39.19	6.86
115.68	-39.23	6.76
116.11	-39.26	6.66
116.55	-39.30	6.53
116.99	-39.33	6.39
117.43	-39.37	6.24
117.87	-39.40	6.08
118.32	-39.44	5.92
118.77	-39.47	5.76
119.21	-39.51	5.61
119.66	-39.55	5.49
120.12	-39.59	5.39
120.57	-39.63	5.33
121.02	-39.67	5.29
121.48	-39.71	5.26
121.94	-39.75	5.20
122.40	-39.78	5.10
122.86	-39.81	4.95
123.32	-39.84	4.72
123.79	-39.85	4.42
124.26	-39.87	4.09
124.73	-39.87	3.76
125.20	-39.88	3.47
125.67	-39.88	3.25
126.14	-39.89	3.15
126.62	-39.90	3.16
127.10	-39.90	3.26
127.58	-39.92	3.40
128.06	-39.93	3.54
128.54	-39.95	3.64
129.03	-39.98	3.65
129.51	-40.01	3.55
130.00	-40.05	3.36
130.49	-40.09	3.11
130.98	-40.13	2.84
131.48	-40.17	2.58
131.98	-40.21	2.35
132.47	-40.24	2.18
132.97	-40.27	2.05
133.48	-40.30	1.97
133.98	-40.32	1.93
134.48	-40.35	1.91
134.99	-40.37	1.91
135.50	-40.40	1.93
136.01	-40.43	1.94
136.53	-40.46	1.95
137.04	-40.48	1.95
137.56	-40.51	1.93
138.08	-40.53	1.87
138.60	-40.55	1.79
139.12	-40.57	1.69
139.65	-40.59	1.57
140.17	-40.60	1.45
140.70	-40.61	1.32
141.23	-40.61	1.20
141.77	-40.62	1.08
142.30	-40.62	0.97
142.84	-40.63	0.88
143.38	-40.64	0.79
143.92	-40.66	0.73
144.46	-40.69	0.67
145.01	-40.72	0.61
145.55	-40.76	0.54
146.10	-40.79	0.44
146.65	-40.82	0.29
147.21	-40.85	0.11
147.76	-40.88	-0.07
148.32	-40.90	-0.21
148.88	-40.92	-0.28
149.44	-40.94	-0.23
150.01	-40.96	-0.04
150.57	-40.98	0.22
151.14	-41.00	0.47
151.71	-41.02	0.64
152.28	-41.05	0.63
152.86	-41.08	0.39
153.43	-41.12	-0.02
154.01	-41.16	-0.52
154.59	-41.18	-1.00
155.18	-41.19	-1.34
155.76	-41.17	-1.48
156.35	-41.15	-1.42
156.94	-41.11	-1.25
157.53	-41.08	-1.03
158.13	-41.06	-0.86
158.72	-41.07	-0.80
159.32	-41.10	-0.84
159.93	-41.13	-0.96
160.53	-41.18	-1.12
161.13	-41.21	-1.30
161.74	-41.24	-1.47
162.35	-41.26	-1.62
162.97	-41.27	-1.76
163.58	-41.27	-1.87
164.20	-41.28	-1.95
164.82	-41.29	-2.02
165.44	-41.30	-2.08
166.06	-41.30	-2.15
166.69	-41.31	-2.27
167.32	-41.30	-2.43
167.95	-41.29	-2.64
168.58	-41.28	-2.83
169.22	-41.28	-2.95
169.86	-41.29	-2.95
170.50	-41.33	-2.79
171.14	-41.37	-2.55
171.79	-41.43	-2.31
172.44	-41.47	-2.20
173.09	-41.50	-2.32
173.74	-41.52	-2.68
174.40	-41.52	-3.17
175.06	-41.51	-3.64
175.72	-41.50	-3.95
176.38	-41.50	-3.99
177.04	-41.50	-3.81
177.71	-41.51	-3.52
178.38	-41.52	-3.24
179.06	-41.53	-3.07
179.73	-41.55	-3.04
180.41	-41.56	-3.11
181.09	-41.57	-3.24
181.77	-41.58	-3.37
182.46	-41.57	-3.46
183.15	-41.56	-3.54
183.84	-41.56	-3.60
184.53	-41.56	-3.67
185.23	-41.57	-3.76
185.93	-41.60	-3.89
186.63	-41.62	-4.05
187.33	-41.65	-4.25
188.04	-41.67	-4.50
188.75	-41.68	-4.77
189.46	-41.69	-5.02
190.18	-41.69	-5.19
190.90	-41.70	-5.26
191.62	-41.71	-5.23
192.34	-41.73	-5.17
193.07	-41.75	-5.15
193.79	-41.78	-5.21
194.53	-41.81	-5.34
195.26	-41.83	-5.47
196.00	-41.83	-5.51
196.74	-41.82	-5.40
197.48	-41.78	-5.17
198.22	-41.75	-4.96
198.97	-41.75	-4.89
199.72	-41.79	-5.08
200.48	-41.86	-5.50
201.23	-41.93	-5.99
201.99	-41.97	-6.39
202.75	-41.95	-6.56
203.52	-41.88	-6.52
204.29	-41.80	-6.37
205.06	-41.75	-6.22
205.83	-41.75	-6.17
206.61	-41.79	-6.19
207.39	-41.84	-6.28
208.17	-41.89	-6.41
208.96	-41.91	-6.56
209.74	-41.91	-6.71
210.54	-41.91	-6.83
211.33	-41.92	-6.92
212.13	-41.92	-6.97
212.93	-41.93	-7.01
213.73	-41.92	-7.05
214.54	-41.89	-7.12
215.35	-41.86	-7.20
216.16	-41.84	-7.25
216.98	-41.88	-7.24
217.80	-41.97	-7.16
218.62	-42.07	-7.09
219.44	-42.13	-7.15
220.27	-42.13	-7.40
221.10	-42.06	-7.79
221.94	-41.98	-8.16
222.77	-41.93	-8.36
223.61	-41.96	-8.30
224.46	-42.02	-8.09
225.30	-42.09	-7.90
226.15	-42.13	-7.86
227.01	-42.14	-7.98
227.86	-42.13	-8.13
228.72	-42.11	-8.21
229.59	-42.10	-8.17
230.45	-42.10	-8.07
231.32	-42.10	-8.02
232.20	-42.10	-8.08
233.07	-42.10	-8.24
233.95	-42.10	-8.42
234.84	-42.07	-8.57
235.72	-42.04	-8.66
236.61	-42.02	-8.75
237.50	-42.01	-8.85
238.40	-42.03	-9.01
239.30	-42.06	-9.19
240.20	-42.07	-9.35
241.11	-42.05	-9.48
242.02	-42.02	-9.60
242.93	-42.02	-9.75
243.85	-42.08	-9.95
244.77	-42.17	-10.18
245.69	-42.23	-10.35
246.62	-42.19	-10.41
247.55	-42.08	-10.34
248.48	-41.98	-10.22
249.42	-41.97	-10.12
250.36	-42.07	-10.07
251.31	-42.20	-10.11
252.26	-42.28	-10.23
253.21	-42.27	-10.43
254.16	-42.23	-10.66
255.12	-42.18	-10.84
256.09	-42.18	-10.96
257.05	-42.19	-11.03
258.02	-42.20	-11.11
259.00	-42.20	-11.22
259.97	-42.22	-11.36
260.95	-42.26	-11.54
261.94	-42.34	-11.75
262.93	-42.39	-11.93
263.92	-42.36	-12.06
264.92	-42.25	-12.09
265.92	-42.13	-12.08
266.92	-42.12	-12.05
267.93	-42.24	-12.05
268.94	-42.38	-12.08
269.95	-42.44	-12.16
270.97	-42.38	-12.28
271.99	-42.29	-12.37
273.02	-42.25	-12.40
274.05	-42.27	-12.37
275.08	-42.32	-12.37
276.12	-42.33	-12.45
277.16	-42.32	-12.59
278.21	-42.32	-12.71
279.26	-42.34	-12.74
280.31	-42.38	-12.76
281.37	-42.42	-12.90
282.43	-42.44	-13.23
283.50	-42.45	-13.57
284.57	-42.46	-13.70
285.64	-42.47	-13.60
286.72	-42.48	-13.51
287.80	-42.48	-13.67
288.89	-42.47	-13.95
289.98	-42.48	-13.95
291.07	-42.50	-13.43
292.17	-42.52	-12.87
293.27	-42.51	-12.97
294.38	-42.46	-13.91
295.49	-42.41	-14.79
296.61	-42.40	-14.71
297.73	-42.43	-13.82
298.85	-42.46	-13.07
299.98	-42.49	-13.17
301.11	-42.49	-13.79
302.25	-42.49	-14.31
303.39	-42.49	-14.51
304.53	-42.48	-14.55
305.68	-42.47	-14.61
306.83	-42.48	-14.69
307.99	-42.53	-14.68
309.15	-42.61	-14.61
310.32	-42.64	-14.70
311.49	-42.52	-15.12
312.67	-42.36	-15.59
313.85	-42.33	-15.65
315.03	-42.46	-15.20
316.22	-42.59	-14.79
317.41	-42.59	-14.95
318.61	-42.49	-15.48
319.81	-42.43	-15.88
321.02	-42.47	-15.96
322.23	-42.53	-15.97
323.45	-42.55	-16.11
324.67	-42.56	-16.29
325.89	-42.59	-16.38
327.12	-42.65	-16.39
328.36	-42.68	-16.48
329.60	-42.68	-16.73
330.84	-42.66	-16.93
332.09	-42.67	-16.89
333.34	-42.69	-16.79
334.60	-42.67	-16.94
335.86	-42.64	-17.26
337.13	-42.68	-17.26
338.40	-42.79	-16.77
339.68	-42.84	-16.47
340.96	-42.72	-17.01
342.25	-42.56	-17.77
343.54	-42.56	-17.76
344.83	-42.72	-17.08
346.14	-42.83	-16.70
347.44	-42.80	-17.04
348.75	-42.72	-17.52
350.07	-42.68	-17.68
351.39	-42.68	-17.64
352.72	-42.70	-17.61
354.05	-42.73	-17.82
355.38	-42.77	-18.43
356.72	-42.80	-18.96
358.07	-42.75	-18.51
359.42	-42.65	-17.41
360.78	-42.64	-17.24
362.14	-42.74	-18.42
363.51	-42.83	-19.26
364.88	-42.82	-18.74
366.25	-42.77	-18.00
367.64	-42.77	-18.12
369.02	-42.78	-18.56
370.42	-42.78	-18.62
371.81	-42.77	-18.55
373.22	-42.75	-18.80
374.63	-42.72	-19.19
376.04	-42.69	-19.29
377.46	-42.65	-19.23
378.88	-42.64	-19.43
380.31	-42.65	-19.71
381.75	-42.66	-19.60
383.19	-42.65	-19.45
384.63	-42.63	-20.14
386.09	-42.63	-21.13
387.54	-42.68	-20.76
389.00	-42.75	-19.55
390.47	-42.75	-19.77
391.95	-42.67	-21.29
393.43	-42.63	-21.92
394.91	-42.65	-21.40
396.40	-42.69	-21.07
397.90	-42.72	-21.36
399.40	-42.71	-21.90
400.90	-42.67	-22.24
402.42	-42.61	-22.04
403.94	-42.60	-22.03
405.46	-42.72	-23.39
406.99	-42.86	-24.88
408.53	-42.88	-24.53
410.07	-42.85	-23.67
411.61	-42.96	-24.28
413.17	-43.10	-25.20
414.73	-43.17	-24.96
416.29	-43.20	-24.35
417.86	-43.22	-24.19
419.44	-43.27	-24.01
421.02	-43.34	-23.61
422.61	-43.39	-23.51
424.21	-43.42	-23.74
425.81	-43.46	-23.72
427.41	-43.48	-23.56
429.03	-43.43	-23.79
430.65	-43.44	-23.90
432.27	-43.61	-23.32
433.90	-43.62	-22.92
435.54	-43.37	-23.32
437.18	-43.33	-23.51
438.83	-43.60	-23.16
