Freq[Hz]	[dBV]	Phase[Deg]
10.00	-65.16	-20.08
10.04	-65.30	-21.19
10.08	-65.44	-22.33
10.11	-65.58	-23.47
10.15	-65.72	-24.64
10.19	-65.86	-25.82
10.23	-66.00	-27.01
10.27	-66.14	-28.21
10.31	-66.28	-29.43
10.34	-66.41	-30.66
10.38	-66.55	-31.91
10.42	-66.69	-33.16
10.46	-66.83	-34.43
10.50	-66.96	-35.70
10.54	-67.10	-36.99
10.58	-67.23	-38.28
10.62	-67.36	-39.59
10.66	-67.49	-40.90
10.70	-67.62	-42.21
10.74	-67.75	-43.54
10.78	-67.88	-44.87
10.82	-68.00	-46.20
10.86	-68.12	-47.54
10.90	-68.24	-48.88
10.95	-68.36	-50.23
10.99	-68.48	-51.57
11.03	-68.59	-52.92
11.07	-68.70	-54.27
11.11	-68.81	-55.62
11.15	-68.91	-56.96
11.20	-69.02	-58.31
11.24	-69.11	-59.65
11.28	-69.21	-60.98
11.32	-69.30	-62.31
11.37	-69.39	-63.64
11.41	-69.47	-64.96
11.45	-69.55	-66.27
11.50	-69.62	-67.57
11.54	-69.69	-68.86
11.58	-69.76	-70.14
11.63	-69.82	-71.41
11.67	-69.87	-72.66
11.71	-69.92	-73.90
11.76	-69.97	-75.13
11.80	-70.01	-76.34
11.85	-70.04	-77.53
11.89	-70.07	-78.71
11.94	-70.09	-79.87
11.98	-70.11	-81.02
12.03	-70.12	-82.16
12.07	-70.13	-83.28
12.12	-70.13	-84.39
12.16	-70.13	-85.48
12.21	-70.13	-86.56
12.26	-70.11	-87.63
12.30	-70.10	-88.69
12.35	-70.08	-89.74
12.39	-70.05	-90.77
12.44	-70.03	-91.79
12.49	-69.99	-92.81
12.54	-69.96	-93.81
12.58	-69.92	-94.80
12.63	-69.87	-95.78
12.68	-69.82	-96.76
12.73	-69.77	-97.72
12.77	-69.72	-98.68
12.82	-69.66	-99.63
12.87	-69.60	-100.57
12.92	-69.54	-101.50
12.97	-69.47	-102.43
13.02	-69.40	-103.36
13.07	-69.33	-104.27
13.12	-69.26	-105.19
13.16	-69.18	-106.10
13.21	-69.11	-107.00
13.26	-69.03	-107.91
13.31	-68.95	-108.81
13.36	-68.87	-109.71
13.41	-68.78	-110.61
13.47	-68.70	-111.51
13.52	-68.61	-112.40
13.57	-68.53	-113.30
13.62	-68.44	-114.21
13.67	-68.36	-115.11
13.72	-68.27	-116.02
13.77	-68.19	-116.93
13.83	-68.10	-117.84
13.88	-68.02	-118.76
13.93	-67.93	-119.69
13.98	-67.85	-120.62
14.04	-67.77	-121.56
14.09	-67.69	-122.51
14.14	-67.62	-123.47
14.19	-67.54	-124.44
14.25	-67.47	-125.43
14.30	-67.40	-126.42
14.36	-67.33	-127.43
14.41	-67.27	-128.45
14.46	-67.21	-129.48
14.52	-67.16	-130.54
14.57	-67.10	-131.61
14.63	-67.06	-132.69
14.68	-67.02	-133.80
14.74	-66.98	-134.93
14.80	-66.95	-136.07
14.85	-66.92	-137.23
14.91	-66.90	-138.41
14.96	-66.88	-139.60
15.02	-66.87	-140.81
15.08	-66.86	-142.03
15.13	-66.85	-143.26
15.19	-66.85	-144.51
15.25	-66.85	-145.77
15.31	-66.86	-147.03
15.36	-66.87	-148.30
15.42	-66.88	-149.59
15.48	-66.90	-150.87
15.54	-66.92	-152.16
15.60	-66.94	-153.46
15.66	-66.97	-154.76
15.71	-67.00	-156.06
15.77	-67.03	-157.36
15.83	-67.06	-158.66
15.89	-67.10	-159.95
15.95	-67.14	-161.24
16.01	-67.18	-162.53
16.07	-67.22	-163.81
16.13	-67.27	-165.08
16.19	-67.31	-166.34
16.26	-67.36	-167.59
16.32	-67.41	-168.83
16.38	-67.45	-170.05
16.44	-67.50	-171.26
16.50	-67.55	-172.45
16.56	-67.60	-173.61
16.63	-67.65	-174.76
16.69	-67.70	-175.89
16.75	-67.75	-176.99
16.82	-67.80	-178.06
16.88	-67.85	-179.11
16.94	-67.89	179.88
17.01	-67.94	178.90
17.07	-67.98	177.95
17.14	-68.02	177.04
17.20	-68.06	176.17
17.27	-68.10	175.33
17.33	-68.13	174.54
17.40	-68.16	173.80
17.46	-68.19	173.10
17.53	-68.21	172.46
17.59	-68.23	171.86
17.66	-68.25	171.32
17.73	-68.26	170.83
17.79	-68.26	170.39
17.86	-68.27	170.00
17.93	-68.26	169.65
18.00	-68.26	169.36
18.06	-68.25	169.11
18.13	-68.24	168.91
18.20	-68.22	168.75
18.27	-68.20	168.63
18.34	-68.17	168.55
18.41	-68.14	168.51
18.48	-68.10	168.50
18.55	-68.07	168.53
18.62	-68.02	168.60
18.69	-67.98	168.70
18.76	-67.93	168.82
18.83	-67.87	168.98
18.90	-67.81	169.16
18.97	-67.75	169.37
19.04	-67.68	169.60
19.11	-67.61	169.85
19.19	-67.54	170.12
19.26	-67.46	170.41
19.33	-67.38	170.71
19.40	-67.29	171.02
19.48	-67.20	171.35
19.55	-67.11	171.68
19.62	-67.01	172.01
19.70	-66.91	172.36
19.77	-66.81	172.70
19.85	-66.70	173.04
19.92	-66.59	173.37
20.00	-66.47	173.70
20.07	-66.35	174.02
20.15	-66.23	174.33
20.22	-66.10	174.62
20.30	-65.97	174.89
20.38	-65.84	175.14
20.45	-65.71	175.37
20.53	-65.57	175.58
20.61	-65.42	175.75
20.69	-65.28	175.90
20.77	-65.13	176.01
20.84	-64.98	176.11
20.92	-64.83	176.17
21.00	-64.67	176.21
21.08	-64.51	176.23
21.16	-64.35	176.23
21.24	-64.19	176.20
21.32	-64.03	176.15
21.40	-63.87	176.09
21.48	-63.70	176.00
21.56	-63.53	175.89
21.64	-63.37	175.77
21.73	-63.20	175.63
21.81	-63.03	175.48
21.89	-62.86	175.32
21.97	-62.70	175.14
22.06	-62.53	174.95
22.14	-62.36	174.75
22.22	-62.20	174.54
22.31	-62.03	174.32
22.39	-61.87	174.10
22.47	-61.71	173.88
22.56	-61.55	173.64
22.64	-61.40	173.41
22.73	-61.24	173.18
22.82	-61.09	172.95
22.90	-60.94	172.72
22.99	-60.80	172.49
23.07	-60.66	172.27
23.16	-60.52	172.06
23.25	-60.39	171.85
23.34	-60.27	171.66
23.43	-60.14	171.48
23.51	-60.03	171.31
23.60	-59.92	171.16
23.69	-59.81	171.01
23.78	-59.71	170.89
23.87	-59.62	170.77
23.96	-59.53	170.67
24.05	-59.44	170.58
24.14	-59.36	170.49
24.23	-59.28	170.42
24.32	-59.21	170.36
24.42	-59.14	170.31
24.51	-59.07	170.27
24.60	-59.01	170.24
24.69	-58.95	170.21
24.79	-58.89	170.19
24.88	-58.84	170.18
24.97	-58.79	170.17
25.07	-58.74	170.17
25.16	-58.69	170.18
25.26	-58.64	170.18
25.35	-58.60	170.19
25.45	-58.55	170.21
25.54	-58.51	170.22
25.64	-58.46	170.24
25.74	-58.42	170.26
25.84	-58.38	170.27
25.93	-58.33	170.29
26.03	-58.29	170.30
26.13	-58.24	170.31
26.23	-58.19	170.32
26.33	-58.14	170.32
26.43	-58.09	170.32
26.53	-58.03	170.31
26.63	-57.98	170.30
26.73	-57.92	170.28
26.83	-57.86	170.25
26.93	-57.79	170.22
27.03	-57.73	170.19
27.13	-57.66	170.15
27.23	-57.59	170.11
27.34	-57.52	170.06
27.44	-57.45	170.02
27.54	-57.38	169.96
27.65	-57.30	169.91
27.75	-57.23	169.85
27.86	-57.15	169.79
27.96	-57.07	169.72
28.07	-56.99	169.65
28.17	-56.91	169.59
28.28	-56.83	169.52
28.39	-56.75	169.45
28.49	-56.67	169.37
28.60	-56.59	169.30
28.71	-56.51	169.23
28.82	-56.43	169.16
28.93	-56.34	169.08
29.03	-56.26	169.01
29.14	-56.18	168.94
29.25	-56.10	168.87
29.36	-56.02	168.81
29.48	-55.94	168.74
29.59	-55.87	168.68
29.70	-55.79	168.61
29.81	-55.71	168.55
29.92	-55.64	168.49
30.04	-55.56	168.43
30.15	-55.49	168.37
30.26	-55.42	168.31
30.38	-55.34	168.25
30.49	-55.27	168.19
30.61	-55.20	168.13
30.72	-55.12	168.07
30.84	-55.05	168.01
30.95	-54.98	167.95
31.07	-54.91	167.88
31.19	-54.84	167.82
31.31	-54.77	167.75
31.42	-54.70	167.68
31.54	-54.63	167.61
31.66	-54.55	167.53
31.78	-54.48	167.45
31.90	-54.41	167.37
32.02	-54.34	167.28
32.14	-54.27	167.19
32.26	-54.20	167.09
32.39	-54.13	166.99
32.51	-54.05	166.89
32.63	-53.98	166.78
32.75	-53.91	166.67
32.88	-53.83	166.55
33.00	-53.76	166.43
33.13	-53.68	166.31
33.25	-53.61	166.18
33.38	-53.53	166.05
33.50	-53.45	165.92
33.63	-53.38	165.79
33.76	-53.30	165.65
33.88	-53.22	165.52
34.01	-53.14	165.38
34.14	-53.06	165.25
34.27	-52.97	165.11
34.40	-52.89	164.97
34.53	-52.81	164.84
34.66	-52.72	164.70
34.79	-52.63	164.57
34.92	-52.55	164.44
35.05	-52.46	164.31
35.18	-52.37	164.18
35.32	-52.27	164.06
35.45	-52.18	163.94
35.58	-52.09	163.82
35.72	-51.99	163.70
35.85	-51.89	163.59
35.99	-51.80	163.48
36.12	-51.70	163.36
36.26	-51.60	163.25
36.40	-51.50	163.14
36.53	-51.40	163.03
36.67	-51.30	162.92
36.81	-51.19	162.82
36.95	-51.09	162.71
37.09	-50.99	162.59
37.23	-50.89	162.48
37.37	-50.78	162.37
37.51	-50.68	162.25
37.65	-50.58	162.14
37.79	-50.48	162.02
37.94	-50.37	161.89
38.08	-50.27	161.77
38.22	-50.17	161.64
38.37	-50.07	161.50
38.51	-49.97	161.36
38.66	-49.87	161.22
38.80	-49.77	161.08
38.95	-49.68	160.94
39.10	-49.58	160.79
39.24	-49.48	160.64
39.39	-49.38	160.49
39.54	-49.29	160.34
39.69	-49.19	160.19
39.84	-49.09	160.03
39.99	-49.00	159.88
40.14	-48.90	159.73
40.29	-48.80	159.58
40.45	-48.71	159.43
40.60	-48.61	159.28
40.75	-48.51	159.13
40.90	-48.42	158.98
41.06	-48.32	158.84
41.21	-48.22	158.70
41.37	-48.13	158.56
41.53	-48.03	158.42
41.68	-47.93	158.29
41.84	-47.83	158.15
42.00	-47.73	158.01
42.16	-47.63	157.88
42.32	-47.54	157.74
42.47	-47.44	157.60
42.63	-47.34	157.46
42.80	-47.24	157.31
42.96	-47.13	157.16
43.12	-47.03	157.01
43.28	-46.93	156.85
43.45	-46.83	156.68
43.61	-46.73	156.51
43.77	-46.62	156.33
43.94	-46.52	156.14
44.10	-46.41	155.94
44.27	-46.31	155.74
44.44	-46.20	155.52
44.61	-46.09	155.30
44.77	-45.99	155.07
44.94	-45.88	154.83
45.11	-45.77	154.58
45.28	-45.66	154.33
45.45	-45.55	154.07
45.63	-45.44	153.80
45.80	-45.33	153.53
45.97	-45.21	153.25
46.14	-45.10	152.96
46.32	-44.99	152.67
46.49	-44.87	152.38
46.67	-44.76	152.08
46.84	-44.64	151.78
47.02	-44.52	151.48
47.20	-44.41	151.17
47.38	-44.29	150.86
47.56	-44.17	150.54
47.74	-44.05	150.22
47.92	-43.93	149.90
48.10	-43.81	149.58
48.28	-43.68	149.25
48.46	-43.56	148.92
48.64	-43.44	148.59
48.83	-43.32	148.25
49.01	-43.19	147.91
49.20	-43.07	147.57
49.38	-42.95	147.23
49.57	-42.82	146.88
49.75	-42.70	146.54
49.94	-42.58	146.19
50.13	-42.45	145.83
50.32	-42.33	145.48
50.51	-42.21	145.12
50.70	-42.08	144.76
50.89	-41.96	144.39
51.08	-41.83	144.02
51.28	-41.71	143.64
51.47	-41.59	143.25
51.66	-41.46	142.86
51.86	-41.34	142.46
52.05	-41.21	142.06
52.25	-41.09	141.64
52.45	-40.96	141.21
52.65	-40.83	140.78
52.85	-40.71	140.33
53.04	-40.58	139.88
53.24	-40.45	139.41
53.45	-40.32	138.92
53.65	-40.19	138.43
53.85	-40.06	137.92
54.05	-39.93	137.39
54.26	-39.80	136.85
54.46	-39.67	136.28
54.67	-39.54	135.71
54.87	-39.41	135.11
55.08	-39.28	134.49
55.29	-39.14	133.85
55.50	-39.01	133.18
55.71	-38.88	132.50
55.92	-38.74	131.79
56.13	-38.61	131.05
56.34	-38.47	130.30
56.55	-38.34	129.53
56.77	-38.20	128.73
56.98	-38.07	127.92
57.19	-37.93	127.10
57.41	-37.80	126.26
57.63	-37.66	125.41
57.84	-37.53	124.54
58.06	-37.39	123.67
58.28	-37.26	122.79
58.50	-37.12	121.90
58.72	-36.99	121.01
58.94	-36.85	120.12
59.17	-36.72	119.22
59.39	-36.59	118.31
59.61	-36.45	117.39
59.84	-36.32	116.47
60.06	-36.20	115.53
60.29	-36.07	114.58
60.52	-35.95	113.62
60.75	-35.83	112.64
60.98	-35.71	111.64
61.21	-35.60	110.62
61.44	-35.49	109.58
61.67	-35.39	108.52
61.90	-35.29	107.43
62.14	-35.20	106.32
62.37	-35.11	105.19
62.61	-35.02	104.04
62.84	-34.94	102.87
63.08	-34.86	101.67
63.32	-34.79	100.45
63.56	-34.72	99.21
63.80	-34.65	97.95
64.04	-34.58	96.67
64.28	-34.52	95.37
64.52	-34.46	94.05
64.76	-34.40	92.71
65.01	-34.34	91.35
65.25	-34.29	89.99
65.50	-34.23	88.61
65.75	-34.19	87.22
66.00	-34.14	85.82
66.24	-34.10	84.42
66.49	-34.06	83.02
66.75	-34.03	81.63
67.00	-34.01	80.24
67.25	-33.99	78.85
67.50	-33.97	77.48
67.76	-33.96	76.12
68.01	-33.96	74.78
68.27	-33.96	73.45
68.53	-33.96	72.13
68.79	-33.98	70.82
69.05	-33.99	69.53
69.31	-34.01	68.26
69.57	-34.04	66.99
69.83	-34.06	65.75
70.09	-34.10	64.52
70.36	-34.13	63.30
70.62	-34.17	62.10
70.89	-34.21	60.92
71.16	-34.25	59.75
71.43	-34.30	58.60
71.70	-34.35	57.46
71.97	-34.40	56.34
72.24	-34.45	55.24
72.51	-34.51	54.15
72.79	-34.57	53.08
73.06	-34.63	52.02
73.34	-34.70	50.98
73.61	-34.76	49.96
73.89	-34.83	48.96
74.17	-34.90	47.97
74.45	-34.97	47.01
74.73	-35.04	46.08
75.01	-35.11	45.17
75.29	-35.18	44.28
75.58	-35.25	43.43
75.86	-35.32	42.61
76.15	-35.39	41.82
76.44	-35.45	41.07
76.73	-35.51	40.35
77.02	-35.57	39.66
77.31	-35.62	39.00
77.60	-35.68	38.37
77.89	-35.74	37.76
78.18	-35.80	37.17
78.48	-35.87	36.60
78.78	-35.93	36.04
79.07	-36.00	35.50
79.37	-36.08	34.96
79.67	-36.16	34.43
79.97	-36.25	33.91
80.27	-36.33	33.39
80.58	-36.42	32.87
80.88	-36.51	32.34
81.19	-36.60	31.81
81.49	-36.68	31.27
81.80	-36.76	30.73
82.11	-36.83	30.17
82.42	-36.90	29.60
82.73	-36.97	29.02
83.04	-37.02	28.44
83.35	-37.08	27.86
83.67	-37.13	27.28
83.99	-37.18	26.72
84.30	-37.24	26.17
84.62	-37.29	25.65
84.94	-37.34	25.15
85.26	-37.40	24.69
85.58	-37.46	24.26
85.90	-37.52	23.86
86.23	-37.58	23.48
86.55	-37.65	23.12
86.88	-37.71	22.78
87.21	-37.78	22.46
87.54	-37.85	22.15
87.87	-37.91	21.84
88.20	-37.98	21.53
88.53	-38.05	21.23
88.87	-38.11	20.93
89.20	-38.18	20.63
89.54	-38.24	20.34
89.88	-38.30	20.04
90.22	-38.35	19.74
90.56	-38.41	19.45
90.90	-38.46	19.15
91.24	-38.51	18.85
91.59	-38.55	18.55
91.93	-38.59	18.25
92.28	-38.63	17.96
92.63	-38.67	17.67
92.98	-38.71	17.38
93.33	-38.75	17.09
93.68	-38.79	16.82
94.03	-38.84	16.55
94.39	-38.88	16.28
94.74	-38.92	16.02
95.10	-38.97	15.77
95.46	-39.02	15.51
95.82	-39.07	15.26
96.18	-39.11	15.00
96.54	-39.16	14.74
96.91	-39.22	14.48
97.27	-39.27	14.21
97.64	-39.32	13.94
98.01	-39.37	13.68
98.38	-39.42	13.42
98.75	-39.47	13.17
99.12	-39.52	12.93
99.50	-39.57	12.72
99.87	-39.62	12.52
100.25	-39.67	12.34
100.63	-39.71	12.17
101.01	-39.75	12.02
101.39	-39.79	11.88
101.77	-39.83	11.74
102.16	-39.86	11.60
102.54	-39.89	11.46
102.93	-39.92	11.32
103.32	-39.94	11.16
103.71	-39.96	11.01
104.10	-39.98	10.85
104.49	-40.00	10.69
104.88	-40.03	10.54
105.28	-40.06	10.39
105.68	-40.10	10.24
106.08	-40.15	10.10
106.48	-40.21	9.96
106.88	-40.27	9.80
107.28	-40.33	9.64
107.69	-40.39	9.45
108.09	-40.44	9.23
108.50	-40.48	8.99
108.91	-40.51	8.71
109.32	-40.54	8.40
109.73	-40.56	8.09
110.15	-40.58	7.77
110.56	-40.59	7.48
110.98	-40.61	7.21
111.40	-40.64	6.99
111.82	-40.67	6.82
112.24	-40.71	6.69
112.67	-40.75	6.59
113.09	-40.79	6.51
113.52	-40.83	6.44
113.95	-40.87	6.36
114.38	-40.90	6.27
114.81	-40.93	6.15
115.24	-40.95	6.01
115.68	-40.97	5.86
116.11	-40.99	5.71
116.55	-41.01	5.56
116.99	-41.03	5.43
117.43	-41.05	5.32
117.87	-41.08	5.23
118.32	-41.11	5.15
118.77	-41.14	5.09
119.21	-41.17	5.03
119.66	-41.21	4.97
120.12	-41.25	4.90
120.57	-41.29	4.83
121.02	-41.33	4.74
121.48	-41.37	4.62
121.94	-41.41	4.48
122.40	-41.44	4.30
122.86	-41.47	4.08
123.32	-41.48	3.82
123.79	-41.49	3.53
124.26	-41.49	3.22
124.73	-41.49	2.94
125.20	-41.48	2.70
125.67	-41.48	2.54
126.14	-41.49	2.48
126.62	-41.49	2.52
127.10	-41.51	2.63
127.58	-41.53	2.76
128.06	-41.55	2.88
128.54	-41.58	2.94
129.03	-41.61	2.90
129.51	-41.64	2.74
130.00	-41.67	2.48
130.49	-41.70	2.18
130.98	-41.73	1.86
131.48	-41.76	1.57
131.98	-41.79	1.36
132.47	-41.81	1.23
132.97	-41.84	1.18
133.48	-41.86	1.18
133.98	-41.88	1.21
134.48	-41.90	1.23
134.99	-41.93	1.24
135.50	-41.96	1.21
136.01	-41.99	1.16
136.53	-42.02	1.09
137.04	-42.04	1.01
137.56	-42.06	0.94
138.08	-42.07	0.87
138.60	-42.08	0.81
139.12	-42.09	0.76
139.65	-42.09	0.71
140.17	-42.09	0.65
140.70	-42.10	0.60
141.23	-42.11	0.53
141.77	-42.13	0.46
142.30	-42.15	0.38
142.84	-42.17	0.27
143.38	-42.19	0.16
143.92	-42.22	0.02
144.46	-42.24	-0.13
145.01	-42.27	-0.30
145.55	-42.29	-0.46
146.10	-42.32	-0.63
146.65	-42.34	-0.78
147.21	-42.37	-0.92
147.76	-42.39	-1.02
148.32	-42.41	-1.08
148.88	-42.44	-1.09
149.44	-42.46	-1.02
150.01	-42.49	-0.89
150.57	-42.51	-0.73
151.14	-42.53	-0.59
151.71	-42.55	-0.52
152.28	-42.58	-0.58
152.86	-42.60	-0.81
153.43	-42.62	-1.15
154.01	-42.63	-1.55
154.59	-42.64	-1.91
155.18	-42.64	-2.17
155.76	-42.64	-2.26
156.35	-42.63	-2.21
156.94	-42.61	-2.06
157.53	-42.60	-1.90
158.13	-42.60	-1.79
158.72	-42.60	-1.78
159.32	-42.61	-1.85
159.93	-42.63	-1.99
160.53	-42.65	-2.14
161.13	-42.68	-2.28
161.74	-42.71	-2.37
162.35	-42.74	-2.43
162.97	-42.76	-2.47
163.58	-42.79	-2.52
164.20	-42.81	-2.61
164.82	-42.82	-2.73
165.44	-42.82	-2.89
166.06	-42.82	-3.06
166.69	-42.81	-3.25
167.32	-42.79	-3.42
167.95	-42.77	-3.58
168.58	-42.76	-3.69
169.22	-42.75	-3.75
169.86	-42.77	-3.73
170.50	-42.81	-3.61
171.14	-42.87	-3.46
171.79	-42.93	-3.35
172.44	-42.98	-3.34
173.09	-43.01	-3.51
173.74	-43.02	-3.87
174.40	-43.00	-4.31
175.06	-42.99	-4.72
175.72	-42.98	-4.99
176.38	-42.98	-5.01
177.04	-43.00	-4.84
177.71	-43.02	-4.59
178.38	-43.05	-4.35
179.06	-43.06	-4.24
179.73	-43.06	-4.27
180.41	-43.06	-4.38
181.09	-43.05	-4.52
181.77	-43.05	-4.63
182.46	-43.05	-4.66
183.15	-43.05	-4.65
183.84	-43.06	-4.65
184.53	-43.07	-4.69
185.23	-43.08	-4.81
185.93	-43.09	-4.99
186.63	-43.10	-5.20
187.33	-43.12	-5.41
188.04	-43.14	-5.57
188.75	-43.15	-5.69
189.46	-43.17	-5.78
190.18	-43.19	-5.85
190.90	-43.22	-5.92
191.62	-43.24	-5.98
192.34	-43.27	-6.04
193.07	-43.29	-6.11
193.79	-43.31	-6.20
194.53	-43.34	-6.29
195.26	-43.35	-6.34
196.00	-43.36	-6.32
196.74	-43.35	-6.20
197.48	-43.33	-6.03
198.22	-43.32	-5.88
198.97	-43.32	-5.87
199.72	-43.35	-6.08
200.48	-43.39	-6.46
201.23	-43.43	-6.89
201.99	-43.45	-7.23
202.75	-43.43	-7.35
203.52	-43.38	-7.30
204.29	-43.33	-7.15
205.06	-43.29	-7.03
205.83	-43.28	-7.00
206.61	-43.30	-7.06
207.39	-43.33	-7.15
208.17	-43.36	-7.24
208.96	-43.39	-7.29
209.74	-43.40	-7.33
210.54	-43.41	-7.38
211.33	-43.42	-7.46
212.13	-43.43	-7.58
212.93	-43.43	-7.69
213.73	-43.42	-7.76
214.54	-43.38	-7.76
215.35	-43.34	-7.71
216.16	-43.33	-7.65
216.98	-43.36	-7.59
217.80	-43.45	-7.59
218.62	-43.56	-7.64
219.44	-43.63	-7.77
220.27	-43.63	-7.99
221.10	-43.57	-8.26
221.94	-43.49	-8.51
222.77	-43.45	-8.68
223.61	-43.47	-8.74
224.46	-43.53	-8.70
225.30	-43.60	-8.63
226.15	-43.62	-8.56
227.01	-43.62	-8.52
227.86	-43.60	-8.51
228.72	-43.59	-8.53
229.59	-43.60	-8.58
230.45	-43.62	-8.64
231.32	-43.63	-8.72
232.20	-43.62	-8.78
233.07	-43.59	-8.84
233.95	-43.56	-8.91
234.84	-43.53	-8.98
235.72	-43.51	-9.06
236.61	-43.50	-9.15
237.50	-43.50	-9.25
238.40	-43.51	-9.36
239.30	-43.52	-9.48
240.20	-43.52	-9.60
241.11	-43.51	-9.73
242.02	-43.51	-9.85
242.93	-43.53	-9.99
243.85	-43.58	-10.14
244.77	-43.65	-10.27
245.69	-43.69	-10.37
246.62	-43.66	-10.39
247.55	-43.57	-10.35
248.48	-43.48	-10.28
249.42	-43.47	-10.22
250.36	-43.53	-10.20
251.31	-43.63	-10.22
252.26	-43.70	-10.29
253.21	-43.71	-10.41
254.16	-43.69	-10.56
255.12	-43.65	-10.72
256.09	-43.61	-10.86
257.05	-43.59	-10.96
258.02	-43.58	-10.98
259.00	-43.59	-10.94
259.97	-43.63	-10.92
260.95	-43.68	-11.03
261.94	-43.73	-11.30
262.93	-43.75	-11.58
263.92	-43.71	-11.73
264.92	-43.60	-11.66
265.92	-43.50	-11.52
266.92	-43.49	-11.44
267.93	-43.59	-11.49
268.94	-43.70	-11.60
269.95	-43.75	-11.68
270.97	-43.69	-11.71
271.99	-43.60	-11.74
273.02	-43.54	-11.83
274.05	-43.55	-11.98
275.08	-43.57	-12.14
276.12	-43.57	-12.25
277.16	-43.56	-12.33
278.21	-43.55	-12.45
279.26	-43.57	-12.66
280.31	-43.59	-12.92
281.37	-43.62	-13.18
282.43	-43.63	-13.39
283.50	-43.64	-13.54
284.57	-43.64	-13.63
285.64	-43.65	-13.68
286.72	-43.66	-13.76
287.80	-43.66	-13.93
288.89	-43.67	-14.09
289.98	-43.67	-14.02
291.07	-43.70	-13.62
292.17	-43.71	-13.26
293.27	-43.70	-13.46
294.38	-43.66	-14.31
295.49	-43.61	-15.09
296.61	-43.59	-15.05
297.73	-43.59	-14.32
298.85	-43.61	-13.64
299.98	-43.62	-13.61
301.11	-43.62	-14.03
302.25	-43.60	-14.57
303.39	-43.57	-14.99
304.53	-43.54	-15.21
305.68	-43.53	-15.20
306.83	-43.54	-15.08
307.99	-43.59	-15.06
309.15	-43.65	-15.24
310.32	-43.66	-15.60
311.49	-43.54	-16.11
312.67	-43.40	-16.56
313.85	-43.36	-16.72
315.03	-43.46	-16.56
316.22	-43.57	-16.39
317.41	-43.54	-16.52
318.61	-43.44	-16.94
319.81	-43.36	-17.46
321.02	-43.37	-17.99
322.23	-43.41	-18.51
323.45	-43.45	-19.01
324.67	-43.49	-19.49
325.89	-43.56	-19.91
327.12	-43.66	-20.25
328.36	-43.76	-20.47
329.60	-43.82	-20.55
330.84	-43.86	-20.48
332.09	-43.89	-20.28
333.34	-43.90	-20.10
334.60	-43.90	-20.12
335.86	-43.89	-20.27
337.13	-43.92	-20.20
338.40	-44.00	-19.80
339.68	-44.03	-19.61
340.96	-43.92	-20.11
342.25	-43.79	-20.79
343.54	-43.80	-20.81
344.83	-43.94	-20.28
346.14	-44.05	-20.07
347.44	-44.06	-20.48
348.75	-44.00	-20.95
350.07	-43.94	-21.05
351.39	-43.93	-20.92
352.72	-43.99	-20.85
354.05	-44.08	-21.06
355.38	-44.13	-21.69
356.72	-44.11	-22.27
358.07	-44.05	-21.98
359.42	-43.99	-21.06
360.78	-44.00	-20.97
362.14	-44.10	-22.08
363.51	-44.19	-22.96
364.88	-44.20	-22.68
366.25	-44.17	-22.13
367.64	-44.18	-22.16
369.02	-44.21	-22.49
370.42	-44.26	-22.65
371.81	-44.30	-22.68
373.22	-44.33	-22.77
374.63	-44.32	-22.89
376.04	-44.28	-22.94
377.46	-44.24	-23.01
378.88	-44.26	-23.26
380.31	-44.32	-23.48
381.75	-44.38	-23.30
383.19	-44.42	-23.06
384.63	-44.46	-23.56
386.09	-44.51	-24.22
387.54	-44.59	-23.43
389.00	-44.67	-21.72
390.47	-44.68	-21.43
391.95	-44.60	-22.46
393.43	-44.53	-22.69
394.91	-44.51	-21.86
396.40	-44.53	-21.29
397.90	-44.56	-21.33
399.40	-44.54	-21.51
400.90	-44.47	-21.45
402.42	-44.40	-20.90
403.94	-44.38	-20.57
405.46	-44.46	-21.48
406.99	-44.54	-22.49
408.53	-44.47	-21.81
410.07	-44.34	-20.76
411.61	-44.30	-21.25
413.17	-44.33	-22.24
414.73	-44.35	-22.33
416.29	-44.35	-22.07
417.86	-44.32	-22.08
419.44	-44.32	-22.11
421.02	-44.36	-22.06
422.61	-44.39	-22.24
424.21	-44.40	-22.61
425.81	-44.39	-22.77
