Freq[Hz]	[dBV]	Phase[Deg]
10.00	-58.55	87.61
10.04	-58.60	88.88
10.08	-58.65	90.19
10.11	-58.69	91.54
10.15	-58.74	92.94
10.19	-58.79	94.37
10.23	-58.84	95.84
10.27	-58.90	97.35
10.31	-58.95	98.90
10.34	-59.01	100.48
10.38	-59.07	102.10
10.42	-59.13	103.76
10.46	-59.19	105.46
10.50	-59.25	107.19
10.54	-59.32	108.95
10.58	-59.39	110.75
10.62	-59.46	112.58
10.66	-59.54	114.44
10.70	-59.61	116.33
10.74	-59.69	118.25
10.78	-59.77	120.21
10.82	-59.86	122.19
10.86	-59.95	124.20
10.90	-60.04	126.24
10.95	-60.14	128.30
10.99	-60.24	130.39
11.03	-60.34	132.50
11.07	-60.44	134.64
11.11	-60.56	136.80
11.15	-60.67	138.98
11.20	-60.79	141.18
11.24	-60.91	143.40
11.28	-61.04	145.64
11.32	-61.17	147.89
11.37	-61.31	150.16
11.41	-61.45	152.45
11.45	-61.60	154.75
11.50	-61.75	157.06
11.54	-61.91	159.38
11.58	-62.07	161.71
11.63	-62.24	164.05
11.67	-62.42	166.39
11.71	-62.60	168.75
11.76	-62.79	171.10
11.80	-62.98	173.46
11.85	-63.19	175.82
11.89	-63.39	178.18
11.94	-63.61	-179.46
11.98	-63.82	-177.10
12.03	-64.05	-174.74
12.07	-64.28	-172.39
12.12	-64.51	-170.03
12.16	-64.75	-167.69
12.21	-65.00	-165.35
12.26	-65.25	-163.02
12.30	-65.50	-160.69
12.35	-65.76	-158.38
12.39	-66.03	-156.07
12.44	-66.29	-153.78
12.49	-66.57	-151.50
12.54	-66.84	-149.24
12.58	-67.12	-146.99
12.63	-67.41	-144.76
12.68	-67.69	-142.55
12.73	-67.98	-140.35
12.77	-68.27	-138.18
12.82	-68.57	-136.03
12.87	-68.87	-133.91
12.92	-69.17	-131.81
12.97	-69.47	-129.74
13.02	-69.77	-127.70
13.07	-70.08	-125.68
13.12	-70.38	-123.70
13.16	-70.69	-121.76
13.21	-71.00	-119.85
13.26	-71.31	-117.97
13.31	-71.62	-116.14
13.36	-71.93	-114.34
13.41	-72.23	-112.59
13.47	-72.54	-110.88
13.52	-72.85	-109.22
13.57	-73.15	-107.60
13.62	-73.46	-106.04
13.67	-73.76	-104.52
13.72	-74.06	-103.06
13.77	-74.36	-101.66
13.83	-74.66	-100.32
13.88	-74.95	-99.03
13.93	-75.24	-97.81
13.98	-75.52	-96.65
14.04	-75.80	-95.56
14.09	-76.08	-94.54
14.14	-76.35	-93.59
14.19	-76.62	-92.71
14.25	-76.88	-91.91
14.30	-77.13	-91.19
14.36	-77.38	-90.54
14.41	-77.62	-89.99
14.46	-77.85	-89.52
14.52	-78.08	-89.13
14.57	-78.29	-88.84
14.63	-78.50	-88.65
14.68	-78.70	-88.55
14.74	-78.89	-88.54
14.80	-79.07	-88.63
14.85	-79.25	-88.82
14.91	-79.41	-89.08
14.96	-79.56	-89.44
15.02	-79.71	-89.87
15.08	-79.85	-90.38
15.13	-79.98	-90.96
15.19	-80.10	-91.62
15.25	-80.21	-92.34
15.31	-80.32	-93.13
15.36	-80.42	-93.97
15.42	-80.51	-94.87
15.48	-80.60	-95.82
15.54	-80.67	-96.82
15.60	-80.75	-97.87
15.66	-80.81	-98.95
15.71	-80.87	-100.07
15.77	-80.92	-101.21
15.83	-80.97	-102.39
15.89	-81.01	-103.58
15.95	-81.05	-104.79
16.01	-81.08	-106.01
16.07	-81.11	-107.24
16.13	-81.13	-108.47
16.19	-81.15	-109.69
16.26	-81.16	-110.90
16.32	-81.17	-112.10
16.38	-81.18	-113.28
16.44	-81.19	-114.43
16.50	-81.19	-115.55
16.56	-81.19	-116.63
16.63	-81.18	-117.67
16.69	-81.18	-118.65
16.75	-81.18	-119.58
16.82	-81.17	-120.44
16.88	-81.16	-121.24
16.94	-81.16	-121.95
17.01	-81.15	-122.58
17.07	-81.14	-123.12
17.14	-81.14	-123.56
17.20	-81.13	-123.89
17.27	-81.13	-124.11
17.33	-81.13	-124.21
17.40	-81.13	-124.18
17.46	-81.14	-124.01
17.53	-81.15	-123.70
17.59	-81.16	-123.23
17.66	-81.18	-122.60
17.73	-81.20	-121.81
17.79	-81.22	-120.88
17.86	-81.25	-119.80
17.93	-81.28	-118.57
18.00	-81.32	-117.20
18.06	-81.36	-115.70
18.13	-81.40	-114.07
18.20	-81.44	-112.32
18.27	-81.49	-110.45
18.34	-81.54	-108.46
18.41	-81.59	-106.36
18.48	-81.64	-104.15
18.55	-81.69	-101.85
18.62	-81.74	-99.46
18.69	-81.80	-96.97
18.76	-81.85	-94.41
18.83	-81.91	-91.77
18.90	-81.96	-89.06
18.97	-82.02	-86.29
19.04	-82.07	-83.46
19.11	-82.13	-80.58
19.19	-82.18	-77.65
19.26	-82.23	-74.70
19.33	-82.28	-71.71
19.40	-82.32	-68.70
19.48	-82.37	-65.67
19.55	-82.41	-62.64
19.62	-82.44	-59.61
19.70	-82.48	-56.59
19.77	-82.51	-53.59
19.85	-82.53	-50.61
19.92	-82.55	-47.67
20.00	-82.57	-44.77
20.07	-82.58	-41.92
20.15	-82.58	-39.13
20.22	-82.57	-36.42
20.30	-82.56	-33.78
20.38	-82.55	-31.23
20.45	-82.52	-28.78
20.53	-82.49	-26.44
20.61	-82.44	-24.22
20.69	-82.39	-22.11
20.77	-82.34	-20.10
20.84	-82.27	-18.20
20.92	-82.20	-16.40
21.00	-82.12	-14.70
21.08	-82.04	-13.09
21.16	-81.96	-11.57
21.24	-81.87	-10.13
21.32	-81.78	-8.78
21.40	-81.69	-7.49
21.48	-81.60	-6.28
21.56	-81.50	-5.14
21.64	-81.41	-4.05
21.73	-81.32	-3.02
21.81	-81.23	-2.04
21.89	-81.14	-1.11
21.97	-81.06	-0.22
22.06	-80.98	0.64
22.14	-80.91	1.47
22.22	-80.84	2.28
22.31	-80.78	3.07
22.39	-80.73	3.85
22.47	-80.69	4.62
22.56	-80.66	5.40
22.64	-80.64	6.18
22.73	-80.64	6.98
22.82	-80.65	7.80
22.90	-80.67	8.65
22.99	-80.70	9.53
23.07	-80.76	10.45
23.16	-80.83	11.43
23.25	-80.92	12.46
23.34	-81.03	13.56
23.43	-81.17	14.73
23.51	-81.32	15.98
23.60	-81.50	17.31
23.69	-81.70	18.73
23.78	-81.92	20.22
23.87	-82.16	21.80
23.96	-82.42	23.46
24.05	-82.69	25.19
24.14	-82.98	27.00
24.23	-83.28	28.89
24.32	-83.60	30.86
24.42	-83.93	32.91
24.51	-84.26	35.03
24.60	-84.61	37.22
24.69	-84.97	39.49
24.79	-85.33	41.84
24.88	-85.69	44.25
24.97	-86.06	46.74
25.07	-86.43	49.30
25.16	-86.81	51.93
25.26	-87.18	54.62
25.35	-87.54	57.39
25.45	-87.91	60.22
25.54	-88.27	63.12
25.64	-88.61	66.08
25.74	-88.95	69.10
25.84	-89.28	72.19
25.93	-89.60	75.34
26.03	-89.90	78.55
26.13	-90.18	81.81
26.23	-90.44	85.14
26.33	-90.69	88.52
26.43	-90.91	91.95
26.53	-91.10	95.44
26.63	-91.27	98.98
26.73	-91.42	102.57
26.83	-91.55	106.20
26.93	-91.66	109.89
27.03	-91.74	113.61
27.13	-91.80	117.39
27.23	-91.84	121.20
27.34	-91.86	125.05
27.44	-91.86	128.94
27.54	-91.84	132.86
27.65	-91.79	136.82
27.75	-91.73	140.81
27.86	-91.66	144.83
27.96	-91.56	148.88
28.07	-91.45	152.95
28.17	-91.32	157.05
28.28	-91.17	161.16
28.39	-91.00	165.30
28.49	-90.83	169.45
28.60	-90.63	173.61
28.71	-90.42	177.78
28.82	-90.20	-178.03
28.93	-89.97	-173.84
29.03	-89.72	-169.65
29.14	-89.46	-165.46
29.25	-89.19	-161.27
29.36	-88.92	-157.09
29.48	-88.63	-152.92
29.59	-88.33	-148.76
29.70	-88.02	-144.63
29.81	-87.71	-140.53
29.92	-87.39	-136.47
30.04	-87.07	-132.45
30.15	-86.74	-128.48
30.26	-86.41	-124.57
30.38	-86.08	-120.72
30.49	-85.74	-116.95
30.61	-85.41	-113.27
30.72	-85.07	-109.67
30.84	-84.74	-106.16
30.95	-84.42	-102.77
31.07	-84.09	-99.49
31.19	-83.77	-96.33
31.31	-83.46	-93.30
31.42	-83.16	-90.42
31.54	-82.87	-87.68
31.66	-82.58	-85.10
31.78	-82.31	-82.70
31.90	-82.06	-80.47
32.02	-81.81	-78.43
32.14	-81.58	-76.59
32.26	-81.37	-74.95
32.39	-81.18	-73.53
32.51	-81.01	-72.32
32.63	-80.85	-71.30
32.75	-80.71	-70.47
32.88	-80.59	-69.81
33.00	-80.48	-69.32
33.13	-80.39	-68.99
33.25	-80.32	-68.81
33.38	-80.26	-68.76
33.50	-80.22	-68.84
33.63	-80.19	-69.03
33.76	-80.18	-69.33
33.88	-80.18	-69.71
34.01	-80.19	-70.18
34.14	-80.21	-70.72
34.27	-80.25	-71.31
34.40	-80.30	-71.94
34.53	-80.36	-72.60
34.66	-80.44	-73.28
34.79	-80.52	-73.97
34.92	-80.61	-74.64
35.05	-80.71	-75.28
35.18	-80.82	-75.89
35.32	-80.94	-76.44
35.45	-81.06	-76.96
35.58	-81.19	-77.45
35.72	-81.32	-77.92
35.85	-81.46	-78.38
35.99	-81.59	-78.85
36.12	-81.73	-79.33
36.26	-81.86	-79.84
36.40	-81.98	-80.38
36.53	-82.10	-80.98
36.67	-82.21	-81.65
36.81	-82.31	-82.39
36.95	-82.40	-83.22
37.09	-82.48	-84.15
37.23	-82.54	-85.20
37.37	-82.58	-86.39
37.51	-82.60	-87.71
37.65	-82.60	-89.20
37.79	-82.58	-90.87
37.94	-82.53	-92.72
38.08	-82.45	-94.78
38.22	-82.34	-97.05
38.37	-82.21	-99.53
38.51	-82.04	-102.19
38.66	-81.85	-105.01
38.80	-81.64	-107.96
38.95	-81.41	-111.02
39.10	-81.15	-114.17
39.24	-80.88	-117.39
39.39	-80.59	-120.65
39.54	-80.29	-123.92
39.69	-79.97	-127.17
39.84	-79.65	-130.39
39.99	-79.32	-133.54
40.14	-78.99	-136.60
40.29	-78.65	-139.53
40.45	-78.31	-142.32
40.60	-77.97	-144.92
40.75	-77.64	-147.31
40.90	-77.32	-149.45
41.06	-77.00	-151.32
41.21	-76.70	-152.91
41.37	-76.41	-154.21
41.53	-76.13	-155.27
41.68	-75.86	-156.09
41.84	-75.61	-156.70
42.00	-75.38	-157.12
42.16	-75.16	-157.37
42.32	-74.96	-157.47
42.47	-74.77	-157.45
42.63	-74.60	-157.33
42.80	-74.46	-157.13
42.96	-74.33	-156.89
43.12	-74.22	-156.61
43.28	-74.13	-156.34
43.45	-74.06	-156.09
43.61	-74.01	-155.90
43.77	-73.99	-155.79
43.94	-73.99	-155.78
44.10	-74.02	-155.91
44.27	-74.07	-156.17
44.44	-74.14	-156.56
44.61	-74.23	-157.08
44.77	-74.33	-157.71
44.94	-74.45	-158.45
45.11	-74.58	-159.30
45.28	-74.71	-160.24
45.45	-74.85	-161.28
45.63	-75.00	-162.41
45.80	-75.14	-163.61
45.97	-75.28	-164.89
46.14	-75.41	-166.23
46.32	-75.54	-167.63
46.49	-75.65	-169.08
46.67	-75.75	-170.57
46.84	-75.82	-172.10
47.02	-75.88	-173.66
47.20	-75.92	-175.24
47.38	-75.93	-176.83
47.56	-75.92	-178.43
47.74	-75.90	179.98
47.92	-75.85	178.39
48.10	-75.79	176.82
48.28	-75.71	175.28
48.46	-75.61	173.78
48.64	-75.49	172.32
48.83	-75.36	170.91
49.01	-75.22	169.57
49.20	-75.06	168.29
49.38	-74.88	167.10
49.57	-74.70	166.00
49.75	-74.50	164.99
49.94	-74.29	164.10
50.13	-74.08	163.32
50.32	-73.86	162.64
50.51	-73.63	162.07
50.70	-73.40	161.59
50.89	-73.18	161.21
51.08	-72.96	160.91
51.28	-72.74	160.70
51.47	-72.54	160.57
51.66	-72.34	160.51
51.86	-72.16	160.53
52.05	-72.00	160.60
52.25	-71.86	160.74
52.45	-71.75	160.93
52.65	-71.66	161.17
52.85	-71.60	161.45
53.04	-71.57	161.77
53.24	-71.57	162.10
53.45	-71.59	162.44
53.65	-71.63	162.77
53.85	-71.68	163.07
54.05	-71.75	163.34
54.26	-71.83	163.56
54.46	-71.91	163.70
54.67	-71.99	163.76
54.87	-72.07	163.72
55.08	-72.14	163.57
55.29	-72.20	163.27
55.50	-72.24	162.83
55.71	-72.27	162.22
55.92	-72.27	161.43
56.13	-72.24	160.48
56.34	-72.20	159.39
56.55	-72.13	158.19
56.77	-72.05	156.89
56.98	-71.94	155.52
57.19	-71.82	154.10
57.41	-71.68	152.65
57.63	-71.52	151.20
57.84	-71.35	149.78
58.06	-71.17	148.40
58.28	-70.98	147.10
58.50	-70.77	145.90
58.72	-70.56	144.82
58.94	-70.33	143.88
59.17	-70.10	143.06
59.39	-69.87	142.36
59.61	-69.64	141.76
59.84	-69.40	141.26
60.06	-69.16	140.84
60.29	-68.93	140.50
60.52	-68.71	140.22
60.75	-68.49	140.00
60.98	-68.28	139.82
61.21	-68.08	139.68
61.44	-67.89	139.55
61.67	-67.72	139.43
61.90	-67.57	139.32
62.14	-67.43	139.19
62.37	-67.30	139.04
62.61	-67.18	138.86
62.84	-67.08	138.63
63.08	-66.98	138.36
63.32	-66.89	138.03
63.56	-66.80	137.62
63.80	-66.72	137.13
64.04	-66.63	136.55
64.28	-66.55	135.86
64.52	-66.46	135.05
64.76	-66.37	134.12
65.01	-66.28	133.08
65.25	-66.17	131.95
65.50	-66.07	130.74
65.75	-65.95	129.47
66.00	-65.82	128.15
66.24	-65.69	126.81
66.49	-65.54	125.46
66.75	-65.38	124.11
67.00	-65.20	122.79
67.25	-65.02	121.51
67.50	-64.81	120.30
67.76	-64.59	119.15
68.01	-64.36	118.06
68.27	-64.12	117.03
68.53	-63.87	116.05
68.79	-63.61	115.11
69.05	-63.35	114.22
69.31	-63.10	113.35
69.57	-62.85	112.50
69.83	-62.61	111.68
70.09	-62.38	110.86
70.36	-62.16	110.04
70.62	-61.96	109.22
70.89	-61.77	108.39
71.16	-61.60	107.53
71.43	-61.43	106.64
71.70	-61.27	105.71
71.97	-61.12	104.73
72.24	-60.97	103.70
72.51	-60.81	102.59
72.79	-60.66	101.41
73.06	-60.50	100.14
73.34	-60.33	98.77
73.61	-60.15	97.30
73.89	-59.96	95.74
74.17	-59.76	94.10
74.45	-59.55	92.39
74.73	-59.34	90.62
75.01	-59.12	88.80
75.29	-58.89	86.94
75.58	-58.66	85.06
75.86	-58.42	83.17
76.15	-58.18	81.28
76.44	-57.93	79.40
76.73	-57.69	77.52
77.02	-57.44	75.64
77.31	-57.20	73.74
77.60	-56.96	71.82
77.89	-56.72	69.85
78.18	-56.49	67.84
78.48	-56.26	65.76
78.78	-56.05	63.61
79.07	-55.84	61.38
79.37	-55.65	59.05
79.67	-55.46	56.62
79.97	-55.29	54.09
80.27	-55.13	51.46
80.58	-54.98	48.73
80.88	-54.84	45.90
81.19	-54.71	42.97
81.49	-54.60	39.93
81.80	-54.49	36.79
82.11	-54.39	33.55
82.42	-54.30	30.21
82.73	-54.22	26.79
83.04	-54.16	23.32
83.35	-54.11	19.82
83.67	-54.08	16.31
83.99	-54.07	12.82
84.30	-54.09	9.37
84.62	-54.13	6.00
84.94	-54.19	2.72
85.26	-54.29	-0.44
85.58	-54.41	-3.49
85.90	-54.56	-6.43
86.23	-54.73	-9.27
86.55	-54.91	-12.03
86.88	-55.11	-14.72
87.21	-55.32	-17.34
87.54	-55.54	-19.90
87.87	-55.76	-22.43
88.20	-55.98	-24.92
88.53	-56.20	-27.37
88.87	-56.42	-29.77
89.20	-56.64	-32.10
89.54	-56.85	-34.35
89.88	-57.06	-36.50
90.22	-57.26	-38.54
90.56	-57.46	-40.47
90.90	-57.65	-42.25
91.24	-57.84	-43.88
91.59	-58.02	-45.39
91.93	-58.19	-46.78
92.28	-58.37	-48.08
92.63	-58.55	-49.29
92.98	-58.74	-50.45
93.33	-58.94	-51.56
93.68	-59.14	-52.64
94.03	-59.36	-53.72
94.39	-59.59	-54.81
94.74	-59.82	-55.90
95.10	-60.06	-57.02
95.46	-60.30	-58.16
95.82	-60.52	-59.34
96.18	-60.74	-60.56
96.54	-60.93	-61.83
96.91	-61.11	-63.16
97.27	-61.26	-64.53
97.64	-61.40	-65.90
98.01	-61.52	-67.23
98.38	-61.63	-68.50
98.75	-61.74	-69.65
99.12	-61.84	-70.65
99.50	-61.95	-71.45
99.87	-62.07	-72.03
100.25	-62.20	-72.40
100.63	-62.34	-72.63
101.01	-62.48	-72.77
101.39	-62.64	-72.89
101.77	-62.80	-73.06
102.16	-62.97	-73.33
102.54	-63.14	-73.79
102.93	-63.32	-74.46
103.32	-63.49	-75.34
103.71	-63.67	-76.36
104.10	-63.83	-77.48
104.49	-63.98	-78.64
104.88	-64.12	-79.79
105.28	-64.23	-80.88
105.68	-64.31	-81.86
106.08	-64.37	-82.69
106.48	-64.41	-83.40
106.88	-64.44	-83.98
107.28	-64.48	-84.46
107.69	-64.52	-84.84
108.09	-64.59	-85.13
108.50	-64.68	-85.35
108.91	-64.80	-85.51
109.32	-64.95	-85.66
109.73	-65.12	-85.85
110.15	-65.29	-86.12
110.56	-65.46	-86.52
110.98	-65.62	-87.10
111.40	-65.75	-87.90
111.82	-65.86	-88.94
112.24	-65.93	-90.15
112.67	-65.99	-91.44
113.09	-66.03	-92.71
113.52	-66.05	-93.88
113.95	-66.06	-94.84
114.38	-66.07	-95.50
114.81	-66.09	-95.83
115.24	-66.10	-95.91
115.68	-66.13	-95.85
116.11	-66.16	-95.76
116.55	-66.22	-95.74
116.99	-66.30	-95.90
117.43	-66.41	-96.37
117.87	-66.54	-97.15
118.32	-66.68	-98.19
118.77	-66.83	-99.45
119.21	-66.97	-100.85
119.66	-67.10	-102.35
120.12	-67.20	-103.88
120.57	-67.26	-105.38
121.02	-67.30	-106.77
121.48	-67.31	-107.97
121.94	-67.32	-108.91
122.40	-67.33	-109.50
122.86	-67.36	-109.66
123.32	-67.41	-109.31
123.79	-67.49	-108.54
124.26	-67.59	-107.56
124.73	-67.70	-106.59
125.20	-67.81	-105.85
125.67	-67.93	-105.58
126.14	-68.04	-106.01
126.62	-68.13	-107.19
127.10	-68.22	-108.89
127.58	-68.28	-110.85
128.06	-68.31	-112.82
128.54	-68.33	-114.52
129.03	-68.31	-115.69
129.51	-68.27	-116.19
130.00	-68.21	-116.18
130.49	-68.16	-115.85
130.98	-68.13	-115.41
131.48	-68.12	-115.06
131.98	-68.17	-115.01
132.47	-68.27	-115.36
132.97	-68.41	-116.06
133.48	-68.55	-117.02
133.98	-68.68	-118.16
134.48	-68.78	-119.38
134.99	-68.82	-120.60
135.50	-68.80	-121.73
136.01	-68.74	-122.71
136.53	-68.67	-123.46
137.04	-68.62	-123.91
137.56	-68.61	-124.00
138.08	-68.67	-123.65
138.60	-68.78	-123.04
139.12	-68.93	-122.43
139.65	-69.09	-122.11
140.17	-69.24	-122.35
140.70	-69.35	-123.46
141.23	-69.41	-125.55
141.77	-69.42	-128.24
142.30	-69.39	-131.07
142.84	-69.35	-133.57
143.38	-69.31	-135.26
143.92	-69.27	-135.70
144.46	-69.26	-135.01
145.01	-69.28	-133.69
145.55	-69.33	-132.23
146.10	-69.43	-131.17
146.65	-69.57	-131.03
147.21	-69.76	-132.03
147.76	-69.97	-133.82
148.32	-70.14	-136.02
148.88	-70.24	-138.22
149.44	-70.24	-140.01
150.01	-70.12	-141.08
150.57	-69.92	-141.55
151.14	-69.70	-141.62
151.71	-69.55	-141.51
152.28	-69.53	-141.42
152.86	-69.69	-141.55
153.43	-69.98	-141.98
154.01	-70.32	-142.74
154.59	-70.63	-143.85
155.18	-70.81	-145.35
155.76	-70.79	-147.23
156.35	-70.62	-149.25
156.94	-70.36	-151.10
157.53	-70.12	-152.42
158.13	-69.96	-152.87
158.72	-69.98	-152.19
159.32	-70.14	-150.75
159.93	-70.39	-149.12
160.53	-70.65	-147.92
161.13	-70.87	-147.74
161.74	-71.00	-149.02
162.35	-71.05	-151.31
162.97	-71.02	-153.97
163.58	-70.96	-156.33
164.20	-70.87	-157.72
164.82	-70.78	-157.81
165.44	-70.71	-157.06
166.06	-70.69	-156.07
166.69	-70.74	-155.42
167.32	-70.88	-155.71
167.95	-71.11	-156.97
168.58	-71.34	-158.73
169.22	-71.54	-160.49
169.86	-71.62	-161.72
170.50	-71.55	-162.02
171.14	-71.38	-161.55
171.79	-71.20	-160.69
172.44	-71.11	-159.84
173.09	-71.20	-159.38
173.74	-71.49	-159.53
174.40	-71.86	-160.19
175.06	-72.18	-161.27
175.72	-72.33	-162.64
176.38	-72.21	-164.18
177.04	-71.90	-165.75
177.71	-71.55	-167.18
178.38	-71.29	-168.30
179.06	-71.26	-168.95
179.73	-71.49	-169.17
180.41	-71.83	-169.23
181.09	-72.14	-169.44
181.77	-72.28	-170.07
182.46	-72.18	-171.23
183.15	-71.91	-172.59
183.84	-71.56	-173.76
184.53	-71.25	-174.31
185.23	-71.05	-173.98
185.93	-70.97	-173.17
186.63	-70.98	-172.50
187.33	-71.04	-172.58
188.04	-71.13	-173.97
188.75	-71.22	-176.34
189.46	-71.29	-178.97
190.18	-71.29	178.90
190.90	-71.22	177.99
191.62	-71.10	178.16
192.34	-71.00	178.75
193.07	-70.98	179.05
193.79	-71.11	178.38
194.53	-71.35	176.72
195.26	-71.60	174.58
196.00	-71.72	172.52
196.74	-71.63	171.05
197.48	-71.33	170.22
198.22	-70.98	169.70
198.97	-70.69	169.14
199.72	-70.62	168.22
200.48	-70.74	166.95
201.23	-70.93	165.54
201.99	-71.06	164.25
202.75	-71.04	163.27
203.52	-70.91	162.58
204.29	-70.79	162.05
205.06	-70.78	161.54
205.83	-70.98	160.92
206.61	-71.28	160.05
207.39	-71.53	158.80
208.17	-71.59	157.06
208.96	-71.38	154.83
209.74	-71.08	152.50
210.54	-70.88	150.50
211.33	-70.97	149.26
212.13	-71.33	148.74
212.93	-71.76	148.42
213.73	-72.02	147.77
214.54	-71.92	146.36
215.35	-71.57	144.50
216.16	-71.20	142.88
216.98	-71.05	142.16
217.80	-71.23	142.55
218.62	-71.58	143.19
219.44	-71.93	143.07
220.27	-72.08	141.26
221.10	-72.04	138.18
221.94	-71.94	135.14
222.77	-71.91	133.52
223.61	-72.04	133.98
224.46	-72.25	135.32
225.30	-72.44	135.96
226.15	-72.52	134.47
227.01	-72.50	131.26
227.86	-72.45	127.96
228.72	-72.46	126.24
229.59	-72.57	126.79
230.45	-72.72	128.31
231.32	-72.84	129.22
232.20	-72.89	128.23
233.07	-72.86	126.02
233.95	-72.81	124.04
234.84	-72.77	123.74
235.72	-72.76	125.05
236.61	-72.83	126.53
237.50	-72.97	126.63
238.40	-73.19	124.72
239.30	-73.38	122.17
240.20	-73.46	120.64
241.11	-73.36	121.32
242.02	-73.19	123.18
242.93	-73.12	124.57
243.85	-73.28	123.99
244.77	-73.58	121.90
245.69	-73.78	119.75
246.62	-73.65	118.98
247.55	-73.25	119.59
248.48	-72.87	120.39
249.42	-72.78	120.15
250.36	-73.03	118.70
251.31	-73.29	117.22
252.26	-73.24	116.98
253.21	-72.80	118.23
254.16	-72.31	119.57
255.12	-72.17	119.39
256.09	-72.51	117.14
257.05	-72.97	114.29
258.02	-73.11	112.60
259.00	-72.73	112.85
259.97	-72.18	113.68
260.95	-71.85	113.43
261.94	-71.94	111.31
262.93	-72.18	108.47
263.92	-72.24	106.35
264.92	-71.98	105.63
265.92	-71.67	105.48
266.92	-71.64	104.86
267.93	-71.95	103.34
268.94	-72.25	101.41
269.95	-72.14	99.66
270.97	-71.60	98.39
271.99	-71.09	97.46
273.02	-71.12	96.72
274.05	-71.65	95.94
275.08	-72.14	94.78
276.12	-72.12	92.97
277.16	-71.69	90.65
278.21	-71.35	88.19
279.26	-71.47	85.99
280.31	-71.86	84.29
281.37	-72.10	83.30
282.43	-71.94	83.00
283.50	-71.63	82.73
284.57	-71.51	81.68
285.64	-71.67	79.80
286.72	-71.84	78.02
287.80	-71.72	77.31
288.89	-71.40	77.23
289.98	-71.25	76.33
291.07	-71.52	73.59
292.17	-71.91	70.18
293.27	-71.98	67.95
294.38	-71.58	67.59
295.49	-71.19	67.58
296.61	-71.34	66.29
297.73	-71.88	64.00
298.85	-72.25	62.38
299.98	-72.04	62.57
301.11	-71.64	63.65
302.25	-71.63	64.16
303.39	-72.09	63.61
304.53	-72.48	62.66
305.68	-72.33	61.94
306.83	-71.93	61.27
307.99	-71.79	60.18
309.15	-72.10	58.68
310.32	-72.41	57.64
311.49	-72.31	57.76
312.67	-71.93	58.15
313.85	-71.69	57.17
315.03	-71.72	54.50
316.22	-71.79	52.01
317.41	-71.65	51.35
318.61	-71.39	51.36
319.81	-71.24	49.75
321.02	-71.26	46.32
322.23	-71.27	43.71
323.45	-71.15	43.84
324.67	-71.00	44.54
325.89	-70.99	42.66
327.12	-71.11	38.68
328.36	-71.18	36.18
329.60	-71.14	36.80
330.84	-71.10	37.25
332.09	-71.18	34.27
333.34	-71.31	30.12
334.60	-71.32	29.24
335.86	-71.19	31.74
337.13	-71.02	33.11
338.40	-70.91	30.79
339.68	-70.94	27.76
340.96	-71.13	27.17
342.25	-71.23	27.88
343.54	-70.98	27.31
344.83	-70.52	25.08
346.14	-70.37	22.64
347.44	-70.64	20.88
348.75	-70.81	19.67
350.07	-70.55	18.81
351.39	-70.30	18.01
352.72	-70.53	16.98
354.05	-70.84	15.28
355.38	-70.62	12.54
356.72	-70.05	9.26
358.07	-69.89	6.48
359.42	-70.18	4.93
360.78	-70.29	4.91
362.14	-69.94	5.74
363.51	-69.68	5.19
364.88	-69.82	2.28
366.25	-69.96	-0.36
367.64	-69.77	-0.71
369.02	-69.58	-1.28
370.42	-69.75	-4.59
371.81	-70.07	-7.67
373.22	-70.18	-6.74
374.63	-70.03	-5.35
376.04	-69.71	-9.37
377.46	-69.41	-15.68
378.88	-69.36	-16.98
380.31	-69.39	-14.88
381.75	-69.13	-16.40
383.19	-68.81	-21.37
384.63	-69.06	-24.45
386.09	-69.67	-25.18
387.54	-69.69	-27.03
389.00	-69.22	-30.45
390.47	-69.17	-33.23
391.95	-69.53	-34.67
393.43	-69.55	-35.52
394.91	-69.25	-36.65
