Freq[Hz]	[dBV]	Phase[Deg]
10.00	-63.36	-51.70
10.04	-63.41	-52.11
10.08	-63.46	-52.54
10.11	-63.51	-53.00
10.15	-63.55	-53.47
10.19	-63.59	-53.97
10.23	-63.64	-54.50
10.27	-63.67	-55.04
10.31	-63.71	-55.61
10.34	-63.75	-56.21
10.38	-63.78	-56.83
10.42	-63.81	-57.48
10.46	-63.84	-58.15
10.50	-63.87	-58.86
10.54	-63.89	-59.59
10.58	-63.92	-60.36
10.62	-63.94	-61.15
10.66	-63.96	-61.98
10.70	-63.98	-62.84
10.74	-63.99	-63.73
10.78	-64.01	-64.66
10.82	-64.02	-65.62
10.86	-64.03	-66.62
10.90	-64.03	-67.65
10.95	-64.04	-68.73
10.99	-64.04	-69.84
11.03	-64.05	-70.99
11.07	-64.05	-72.19
11.11	-64.04	-73.42
11.15	-64.04	-74.70
11.20	-64.03	-76.03
11.24	-64.02	-77.39
11.28	-64.01	-78.81
11.32	-64.00	-80.27
11.37	-63.99	-81.78
11.41	-63.97	-83.34
11.45	-63.95	-84.96
11.50	-63.93	-86.62
11.54	-63.91	-88.34
11.58	-63.88	-90.11
11.63	-63.86	-91.94
11.67	-63.83	-93.82
11.71	-63.80	-95.77
11.76	-63.76	-97.77
11.80	-63.73	-99.83
11.85	-63.69	-101.95
11.89	-63.65	-104.13
11.94	-63.61	-106.36
11.98	-63.57	-108.65
12.03	-63.53	-110.99
12.07	-63.48	-113.38
12.12	-63.43	-115.82
12.16	-63.38	-118.32
12.21	-63.33	-120.86
12.26	-63.28	-123.45
12.30	-63.23	-126.08
12.35	-63.18	-128.77
12.39	-63.12	-131.49
12.44	-63.07	-134.25
12.49	-63.01	-137.06
12.54	-62.96	-139.90
12.58	-62.90	-142.78
12.63	-62.84	-145.70
12.68	-62.79	-148.65
12.73	-62.73	-151.63
12.77	-62.67	-154.64
12.82	-62.61	-157.68
12.87	-62.55	-160.75
12.92	-62.49	-163.84
12.97	-62.44	-166.95
13.02	-62.38	-170.08
13.07	-62.32	-173.24
13.12	-62.27	-176.41
13.16	-62.21	-179.59
13.21	-62.16	177.21
13.26	-62.11	174.01
13.31	-62.05	170.79
13.36	-62.00	167.58
13.41	-61.96	164.35
13.47	-61.91	161.13
13.52	-61.86	157.91
13.57	-61.82	154.70
13.62	-61.78	151.49
13.67	-61.74	148.29
13.72	-61.70	145.10
13.77	-61.67	141.93
13.83	-61.64	138.78
13.88	-61.61	135.65
13.93	-61.59	132.54
13.98	-61.57	129.46
14.04	-61.55	126.41
14.09	-61.54	123.40
14.14	-61.53	120.42
14.19	-61.52	117.48
14.25	-61.52	114.58
14.30	-61.52	111.73
14.36	-61.53	108.94
14.41	-61.55	106.19
14.46	-61.56	103.50
14.52	-61.59	100.88
14.57	-61.62	98.32
14.63	-61.65	95.82
14.68	-61.70	93.41
14.74	-61.74	91.06
14.80	-61.80	88.79
14.85	-61.86	86.59
14.91	-61.92	84.47
14.96	-61.99	82.43
15.02	-62.07	80.45
15.08	-62.15	78.56
15.13	-62.24	76.73
15.19	-62.33	74.98
15.25	-62.42	73.31
15.31	-62.52	71.71
15.36	-62.63	70.18
15.42	-62.73	68.73
15.48	-62.85	67.36
15.54	-62.96	66.05
15.60	-63.08	64.82
15.66	-63.20	63.67
15.71	-63.32	62.59
15.77	-63.45	61.58
15.83	-63.58	60.64
15.89	-63.71	59.78
15.95	-63.84	58.99
16.01	-63.97	58.27
16.07	-64.11	57.63
16.13	-64.25	57.05
16.19	-64.38	56.55
16.26	-64.52	56.12
16.32	-64.65	55.76
16.38	-64.79	55.47
16.44	-64.93	55.25
16.50	-65.06	55.11
16.56	-65.20	55.03
16.63	-65.33	55.02
16.69	-65.46	55.08
16.75	-65.58	55.20
16.82	-65.71	55.40
16.88	-65.83	55.66
16.94	-65.95	55.99
17.01	-66.06	56.38
17.07	-66.17	56.85
17.14	-66.28	57.37
17.20	-66.38	57.96
17.27	-66.47	58.61
17.33	-66.56	59.33
17.40	-66.65	60.11
17.46	-66.72	60.95
17.53	-66.79	61.85
17.59	-66.85	62.81
17.66	-66.90	63.82
17.73	-66.95	64.90
17.79	-66.99	66.02
17.86	-67.01	67.18
17.93	-67.04	68.38
18.00	-67.05	69.62
18.06	-67.06	70.89
18.13	-67.06	72.17
18.20	-67.06	73.48
18.27	-67.05	74.80
18.34	-67.03	76.12
18.41	-67.01	77.45
18.48	-66.98	78.77
18.55	-66.95	80.08
18.62	-66.91	81.36
18.69	-66.87	82.63
18.76	-66.82	83.86
18.83	-66.77	85.06
18.90	-66.71	86.21
18.97	-66.66	87.31
19.04	-66.59	88.35
19.11	-66.53	89.33
19.19	-66.46	90.23
19.26	-66.39	91.05
19.33	-66.32	91.78
19.40	-66.25	92.41
19.48	-66.17	92.94
19.55	-66.10	93.36
19.62	-66.02	93.65
19.70	-65.95	93.81
19.77	-65.87	93.83
19.85	-65.80	93.71
19.92	-65.72	93.42
20.00	-65.65	92.97
20.07	-65.58	92.35
20.15	-65.51	91.53
20.22	-65.45	90.52
20.30	-65.39	89.31
20.38	-65.33	87.87
20.45	-65.27	86.21
20.53	-65.22	84.32
20.61	-65.18	82.18
20.69	-65.14	79.80
20.77	-65.11	77.20
20.84	-65.08	74.38
20.92	-65.05	71.35
21.00	-65.03	68.12
21.08	-65.02	64.70
21.16	-65.01	61.10
21.24	-65.00	57.33
21.32	-65.00	53.39
21.40	-65.00	49.31
21.48	-65.01	45.08
21.56	-65.02	40.73
21.64	-65.04	36.25
21.73	-65.06	31.67
21.81	-65.09	26.99
21.89	-65.12	22.23
21.97	-65.16	17.39
22.06	-65.20	12.50
22.14	-65.24	7.56
22.22	-65.29	2.59
22.31	-65.34	-2.41
22.39	-65.40	-7.41
22.47	-65.46	-12.40
22.56	-65.53	-17.37
22.64	-65.60	-22.31
22.73	-65.67	-27.19
22.82	-65.75	-32.01
22.90	-65.83	-36.74
22.99	-65.91	-41.38
23.07	-66.00	-45.90
23.16	-66.09	-50.30
23.25	-66.19	-54.54
23.34	-66.29	-58.62
23.43	-66.39	-62.52
23.51	-66.50	-66.21
23.60	-66.61	-69.70
23.69	-66.72	-72.99
23.78	-66.84	-76.06
23.87	-66.96	-78.93
23.96	-67.09	-81.58
24.05	-67.23	-84.01
24.14	-67.37	-86.23
24.23	-67.52	-88.22
24.32	-67.68	-90.00
24.42	-67.84	-91.55
24.51	-68.02	-92.87
24.60	-68.20	-93.97
24.69	-68.39	-94.84
24.79	-68.60	-95.47
24.88	-68.82	-95.87
24.97	-69.04	-96.03
25.07	-69.29	-95.95
25.16	-69.54	-95.64
25.26	-69.81	-95.08
25.35	-70.09	-94.27
25.45	-70.39	-93.21
25.54	-70.70	-91.91
25.64	-71.04	-90.35
25.74	-71.38	-88.54
25.84	-71.75	-86.47
25.93	-72.14	-84.14
26.03	-72.54	-81.55
26.13	-72.97	-78.70
26.23	-73.42	-75.58
26.33	-73.89	-72.19
26.43	-74.38	-68.53
26.53	-74.90	-64.61
26.63	-75.43	-60.44
26.73	-75.98	-56.05
26.83	-76.55	-51.45
26.93	-77.13	-46.66
27.03	-77.73	-41.70
27.13	-78.32	-36.59
27.23	-78.93	-31.35
27.34	-79.54	-26.00
27.44	-80.14	-20.56
27.54	-80.75	-15.05
27.65	-81.35	-9.50
27.75	-81.93	-3.92
27.86	-82.51	1.65
27.96	-83.08	7.20
28.07	-83.62	12.70
28.17	-84.15	18.13
28.28	-84.65	23.46
28.39	-85.12	28.67
28.49	-85.56	33.72
28.60	-85.97	38.60
28.71	-86.34	43.27
28.82	-86.67	47.71
28.93	-86.96	51.89
29.03	-87.19	55.77
29.14	-87.38	59.34
29.25	-87.50	62.55
29.36	-87.57	65.37
29.48	-87.58	67.82
29.59	-87.53	69.91
29.70	-87.42	71.66
29.81	-87.27	73.11
29.92	-87.07	74.26
30.04	-86.83	75.16
30.15	-86.55	75.82
30.26	-86.24	76.28
30.38	-85.90	76.56
30.49	-85.53	76.68
30.61	-85.14	76.69
30.72	-84.73	76.60
30.84	-84.30	76.44
30.95	-83.87	76.26
31.07	-83.44	76.07
31.19	-83.00	75.92
31.31	-82.57	75.83
31.42	-82.15	75.84
31.54	-81.75	75.99
31.66	-81.36	76.30
31.78	-81.01	76.82
31.90	-80.68	77.58
32.02	-80.39	78.62
32.14	-80.15	79.98
32.26	-79.95	81.69
32.39	-79.80	83.78
32.51	-79.70	86.23
32.63	-79.64	89.01
32.75	-79.63	92.10
32.88	-79.65	95.48
33.00	-79.70	99.12
33.13	-79.79	103.00
33.25	-79.90	107.09
33.38	-80.03	111.37
33.50	-80.18	115.82
33.63	-80.35	120.39
33.76	-80.52	125.08
33.88	-80.69	129.84
34.01	-80.87	134.64
34.14	-81.04	139.47
34.27	-81.21	144.29
34.40	-81.36	149.06
34.53	-81.49	153.75
34.66	-81.59	158.34
34.79	-81.67	162.79
34.92	-81.71	167.07
35.05	-81.72	171.13
35.18	-81.67	174.95
35.32	-81.58	178.50
35.45	-81.45	-178.21
35.58	-81.28	-175.16
35.72	-81.08	-172.35
35.85	-80.85	-169.76
35.99	-80.60	-167.37
36.12	-80.33	-165.18
36.26	-80.05	-163.16
36.40	-79.78	-161.31
36.53	-79.50	-159.60
36.67	-79.24	-158.03
36.81	-78.99	-156.58
36.95	-78.77	-155.22
37.09	-78.58	-153.95
37.23	-78.42	-152.75
37.37	-78.31	-151.60
37.51	-78.25	-150.48
37.65	-78.25	-149.37
37.79	-78.32	-148.26
37.94	-78.47	-147.12
38.08	-78.70	-145.94
38.22	-79.02	-144.70
38.37	-79.42	-143.37
38.51	-79.90	-141.95
38.66	-80.44	-140.39
38.80	-81.05	-138.69
38.95	-81.71	-136.83
39.10	-82.40	-134.77
39.24	-83.13	-132.50
39.39	-83.88	-130.00
39.54	-84.65	-127.23
39.69	-85.42	-124.18
39.84	-86.18	-120.83
39.99	-86.92	-117.14
40.14	-87.63	-113.09
40.29	-88.30	-108.66
40.45	-88.93	-103.82
40.60	-89.49	-98.53
40.75	-89.98	-92.78
40.90	-90.38	-86.53
41.06	-90.68	-79.76
41.21	-90.88	-72.46
41.37	-90.98	-64.66
41.53	-90.99	-56.41
41.68	-90.91	-47.76
41.84	-90.75	-38.73
42.00	-90.51	-29.39
42.16	-90.20	-19.77
42.32	-89.82	-9.92
42.47	-89.39	0.11
42.63	-88.91	10.27
42.80	-88.38	20.51
42.96	-87.82	30.79
43.12	-87.23	41.03
43.28	-86.61	51.20
43.45	-85.98	61.24
43.61	-85.34	71.09
43.77	-84.70	80.70
43.94	-84.06	90.00
44.10	-83.45	98.93
44.27	-82.84	107.46
44.44	-82.26	115.54
44.61	-81.70	123.13
44.77	-81.15	130.18
44.94	-80.63	136.66
45.11	-80.13	142.50
45.28	-79.65	147.67
45.45	-79.20	152.12
45.63	-78.77	155.79
45.80	-78.36	158.65
45.97	-77.98	160.63
46.14	-77.63	161.69
46.32	-77.31	161.78
46.49	-77.02	160.83
46.67	-76.76	158.80
46.84	-76.54	155.63
47.02	-76.34	151.28
47.20	-76.18	145.84
47.38	-76.05	139.44
47.56	-75.95	132.25
47.74	-75.88	124.39
47.92	-75.84	116.04
48.10	-75.83	107.34
48.28	-75.83	98.45
48.46	-75.87	89.54
48.64	-75.92	80.77
48.83	-76.00	72.33
49.01	-76.09	64.37
49.20	-76.20	57.08
49.38	-76.33	50.64
49.57	-76.47	45.25
49.75	-76.63	41.08
49.94	-76.79	38.33
50.13	-76.97	36.95
50.32	-77.14	36.85
50.51	-77.31	37.89
50.70	-77.48	39.94
50.89	-77.64	42.87
51.08	-77.78	46.54
51.28	-77.90	50.82
51.47	-77.99	55.56
51.66	-78.05	60.62
51.86	-78.07	65.84
52.05	-78.06	71.09
52.25	-77.99	76.19
52.45	-77.87	81.00
52.65	-77.69	85.34
52.85	-77.45	89.07
53.04	-77.15	92.14
53.24	-76.78	94.61
53.45	-76.36	96.57
53.65	-75.89	98.09
53.85	-75.38	99.25
54.05	-74.84	100.12
54.26	-74.26	100.79
54.46	-73.66	101.34
54.67	-73.04	101.85
54.87	-72.42	102.42
55.08	-71.78	103.12
55.29	-71.15	104.06
55.50	-70.53	105.32
55.71	-69.92	107.00
55.92	-69.34	109.12
56.13	-68.78	111.58
56.34	-68.24	114.22
56.55	-67.72	116.89
56.77	-67.23	119.45
56.98	-66.76	121.74
57.19	-66.31	123.61
57.41	-65.89	124.89
57.63	-65.49	125.42
57.84	-65.11	125.04
58.06	-64.76	123.56
58.28	-64.44	120.83
58.50	-64.13	116.64
58.72	-63.86	110.85
58.94	-63.61	103.51
59.17	-63.39	94.89
59.39	-63.21	85.26
59.61	-63.07	74.91
59.84	-62.98	64.11
60.06	-62.93	53.18
60.29	-62.95	42.40
60.52	-63.03	32.09
60.75	-63.17	22.55
60.98	-63.39	14.12
61.21	-63.68	7.12
61.44	-64.06	1.89
61.67	-64.53	-1.26
61.90	-65.08	-2.31
62.14	-65.70	-1.47
62.37	-66.38	1.03
62.61	-67.10	4.96
62.84	-67.85	10.09
63.08	-68.62	16.17
63.32	-69.38	22.96
63.56	-70.12	30.20
63.80	-70.84	37.65
64.04	-71.50	45.03
64.28	-72.11	52.07
64.52	-72.63	58.50
64.76	-73.06	64.13
65.01	-73.39	68.95
65.25	-73.64	72.95
65.50	-73.80	76.12
65.75	-73.88	78.47
66.00	-73.87	79.99
66.24	-73.78	80.68
66.49	-73.61	80.55
66.75	-73.36	79.57
67.00	-73.03	77.76
67.25	-72.63	75.11
67.50	-72.16	71.63
67.76	-71.62	67.35
68.01	-71.02	62.38
68.27	-70.39	56.82
68.53	-69.72	50.77
68.79	-69.02	44.33
69.05	-68.32	37.63
69.31	-67.62	30.76
69.57	-66.93	23.85
69.83	-66.27	17.00
70.09	-65.65	10.35
70.36	-65.08	4.01
70.62	-64.58	-1.92
70.89	-64.13	-7.39
71.16	-63.75	-12.37
71.43	-63.42	-16.82
71.70	-63.15	-20.70
71.97	-62.93	-23.97
72.24	-62.77	-26.59
72.51	-62.66	-28.52
72.79	-62.60	-29.72
73.06	-62.58	-30.15
73.34	-62.62	-29.76
73.61	-62.70	-28.60
73.89	-62.83	-26.85
74.17	-63.03	-24.69
74.45	-63.29	-22.32
74.73	-63.64	-19.95
75.01	-64.07	-17.77
75.29	-64.59	-16.00
75.58	-65.22	-14.85
75.86	-65.95	-14.54
76.15	-66.81	-15.29
76.44	-67.79	-17.27
76.73	-68.86	-20.31
77.02	-69.98	-24.12
77.31	-71.10	-28.41
77.60	-72.19	-32.89
77.89	-73.19	-37.27
78.18	-74.06	-41.22
78.48	-74.75	-44.43
78.78	-75.22	-46.59
79.07	-75.41	-47.36
79.37	-75.28	-46.49
79.67	-74.88	-44.21
79.97	-74.26	-40.91
80.27	-73.49	-36.99
80.58	-72.62	-32.85
80.88	-71.73	-28.91
81.19	-70.88	-25.60
81.49	-70.13	-23.35
81.80	-69.57	-22.61
82.11	-69.25	-23.83
82.42	-69.21	-27.20
82.73	-69.41	-32.33
83.04	-69.78	-38.77
83.35	-70.29	-46.08
83.67	-70.86	-53.77
83.99	-71.44	-61.37
84.30	-71.97	-68.38
84.62	-72.38	-74.31
84.94	-72.62	-78.63
85.26	-72.64	-80.95
85.58	-72.46	-81.45
85.90	-72.13	-80.51
86.23	-71.71	-78.51
86.55	-71.24	-75.85
86.88	-70.78	-72.93
87.21	-70.39	-70.17
87.54	-70.12	-67.99
87.87	-70.02	-66.82
88.20	-70.16	-67.00
88.53	-70.49	-68.44
88.87	-70.97	-70.89
89.20	-71.57	-74.09
89.54	-72.22	-77.78
89.88	-72.88	-81.71
90.22	-73.50	-85.58
90.56	-74.03	-89.14
90.90	-74.41	-92.08
91.24	-74.63	-94.26
91.59	-74.68	-95.79
91.93	-74.62	-96.82
92.28	-74.47	-97.49
92.63	-74.26	-97.97
92.98	-74.02	-98.41
93.33	-73.79	-98.99
93.68	-73.60	-99.86
94.03	-73.47	-101.18
94.39	-73.45	-102.90
94.74	-73.56	-104.90
95.10	-73.82	-107.07
95.46	-74.27	-109.28
95.82	-74.93	-111.39
96.18	-75.83	-113.27
96.54	-77.00	-114.78
96.91	-78.46	-115.81
97.27	-80.17	-116.42
97.64	-81.98	-116.84
98.01	-83.78	-117.31
98.38	-85.43	-118.06
98.75	-86.81	-119.33
99.12	-87.77	-121.38
99.50	-88.17	-124.45
99.87	-87.89	-128.76
100.25	-86.98	-134.02
100.63	-85.57	-139.61
101.01	-83.81	-144.92
101.39	-81.85	-149.32
101.77	-79.85	-152.16
102.16	-77.97	-152.77
102.54	-76.37	-150.47
102.93	-75.17	-144.87
103.32	-74.37	-136.69
103.71	-73.92	-126.97
104.10	-73.76	-116.78
104.49	-73.85	-107.19
104.88	-74.13	-99.32
105.28	-74.55	-94.30
105.68	-75.06	-93.24
106.08	-75.61	-96.21
106.48	-76.18	-102.27
106.88	-76.73	-110.45
107.28	-77.25	-119.72
107.69	-77.69	-129.06
108.09	-78.03	-137.40
108.50	-78.23	-143.66
108.91	-78.28	-147.22
109.32	-78.20	-148.39
109.73	-78.02	-147.60
110.15	-77.74	-145.27
110.56	-77.40	-141.86
110.98	-77.02	-137.82
111.40	-76.63	-133.61
111.82	-76.24	-129.63
112.24	-75.84	-126.15
112.67	-75.42	-123.37
113.09	-74.97	-121.53
113.52	-74.49	-120.86
113.95	-73.96	-121.61
114.38	-73.37	-124.03
114.81	-72.72	-128.10
115.24	-72.07	-133.38
115.68	-71.47	-139.36
116.11	-70.98	-145.52
116.55	-70.64	-151.33
116.99	-70.51	-156.23
117.43	-70.65	-159.70
117.87	-71.05	-161.78
118.32	-71.63	-163.02
118.77	-72.32	-163.98
119.21	-73.03	-165.25
119.66	-73.70	-167.44
120.12	-74.24	-171.15
120.57	-74.59	-176.83
121.02	-74.75	175.87
121.48	-74.75	167.49
121.94	-74.63	158.59
122.40	-74.42	149.74
122.86	-74.15	141.53
123.32	-73.84	134.53
123.79	-73.51	129.19
124.26	-73.17	125.82
124.73	-72.82	124.73
125.20	-72.45	126.26
125.67	-72.08	130.73
126.14	-71.69	138.47
126.62	-71.32	149.11
127.10	-70.98	161.26
127.58	-70.73	173.37
128.06	-70.59	-176.10
128.54	-70.62	-168.75
129.03	-70.84	-166.20
129.51	-71.27	-169.02
130.00	-71.85	-175.62
130.49	-72.50	175.88
130.98	-73.14	167.40
131.48	-73.71	160.90
131.98	-74.13	158.36
132.47	-74.36	160.47
132.97	-74.49	165.48
133.48	-74.58	171.33
133.98	-74.71	175.92
134.48	-74.98	177.12
134.99	-75.46	172.77
135.50	-76.18	162.19
136.01	-77.09	146.38
136.53	-78.15	126.50
137.04	-79.31	103.70
137.56	-80.52	79.19
138.08	-81.73	54.22
138.60	-82.79	30.38
139.12	-83.52	9.48
139.65	-83.74	-6.66
140.17	-83.26	-16.15
140.70	-81.87	-17.07
141.23	-79.53	-8.44
141.77	-76.63	8.14
142.30	-73.58	30.61
142.84	-70.86	56.89
143.38	-68.91	84.83
143.92	-68.18	112.28
144.46	-68.60	137.55
145.01	-69.80	159.25
145.55	-71.39	175.96
146.10	-72.97	-173.76
146.65	-74.14	-171.39
147.21	-74.69	-176.92
147.76	-74.76	172.09
148.32	-74.50	158.40
148.88	-74.10	144.82
149.44	-73.72	134.24
150.01	-73.56	128.50
150.57	-73.87	125.71
151.14	-74.92	123.14
151.71	-76.96	117.97
152.28	-80.27	107.32
152.86	-85.00	88.98
153.43	-90.47	64.70
154.01	-95.74	37.63
154.59	-99.84	11.04
155.18	-101.77	-11.77
155.76	-100.72	-27.99
156.35	-97.25	-38.59
156.94	-92.52	-46.15
157.53	-87.67	-53.31
158.13	-83.92	-62.75
158.72	-82.26	-76.72
159.32	-82.42	-94.58
159.93	-83.62	-114.55
160.53	-85.10	-134.86
161.13	-86.06	-153.65
161.74	-85.90	-169.35
162.35	-84.93	178.47
162.97	-83.69	169.97
163.58	-82.73	165.29
164.20	-82.61	164.59
164.82	-83.57	167.68
165.44	-85.15	173.74
166.06	-86.82	-178.21
166.69	-88.01	-169.14
167.32	-88.16	-160.06
167.95	-87.20	-152.07
168.58	-85.54	-146.37
169.22	-83.59	-144.17
169.86	-81.80	-146.75
170.50	-80.53	-154.89
171.14	-79.67	-166.88
171.79	-78.97	179.95
172.44	-78.16	168.30
173.09	-76.97	160.88
173.74	-75.37	158.11
174.40	-73.69	157.01
175.06	-72.27	154.26
175.72	-71.47	146.46
176.38	-71.58	131.21
177.04	-72.53	111.83
177.71	-74.09	93.64
178.38	-76.03	82.09
179.06	-78.12	82.51
179.73	-80.12	94.43
180.41	-81.78	111.61
181.09	-82.85	127.46
181.77	-83.07	135.25
182.46	-82.35	131.53
183.15	-81.03	120.68
183.84	-79.51	108.24
184.53	-78.22	99.90
185.23	-77.48	100.22
185.93	-77.25	107.96
186.63	-77.37	120.12
187.33	-77.65	133.64
188.04	-77.93	145.43
188.75	-78.07	152.94
189.46	-77.93	153.82
190.18	-77.40	145.69
190.90	-76.36	126.53
191.62	-75.13	99.72
192.34	-74.28	72.41
193.07	-74.41	51.95
193.79	-76.08	45.39
194.53	-78.95	52.44
195.26	-81.94	66.91
196.00	-83.94	82.34
196.74	-83.90	92.38
197.48	-81.92	94.93
198.22	-79.01	91.18
198.97	-76.24	82.44
199.72	-74.63	70.17
200.48	-74.45	57.31
201.23	-75.50	47.81
201.99	-77.55	45.72
202.75	-80.33	54.19
203.52	-83.32	69.11
204.29	-85.85	82.85
205.06	-87.27	87.65
205.83	-87.09	77.94
206.61	-85.79	58.70
207.39	-84.10	37.87
208.17	-82.78	23.58
208.96	-82.21	20.55
209.74	-82.01	25.82
210.54	-81.66	35.29
211.33	-80.64	44.89
212.13	-79.11	53.04
212.93	-77.85	60.74
213.73	-77.71	69.15
214.54	-79.33	78.82
215.35	-81.94	86.10
216.16	-84.10	85.52
216.98	-84.38	71.54
217.80	-82.27	44.23
218.62	-79.30	15.96
219.44	-77.30	0.93
220.27	-78.00	12.17
221.10	-81.46	44.96
221.94	-86.58	82.41
222.77	-92.23	107.04
223.61	-97.30	107.87
224.46	-100.76	92.02
225.30	-101.58	69.82
226.15	-98.88	51.28
227.01	-93.43	40.49
227.86	-87.12	37.61
228.72	-81.89	42.73
229.59	-78.97	53.39
230.45	-78.04	61.98
231.32	-78.63	60.11
232.20	-80.19	41.67
233.07	-81.85	15.58
233.95	-82.65	-3.31
234.84	-81.63	-0.54
235.72	-79.29	22.80
236.61	-77.51	50.44
237.50	-78.25	65.22
238.40	-82.15	58.18
239.30	-86.96	38.34
240.20	-89.99	17.20
241.11	-89.26	4.69
242.02	-85.97	2.62
242.93	-82.30	10.54
243.85	-80.21	27.22
244.77	-79.52	44.68
245.69	-78.91	51.24
246.62	-77.11	35.91
247.55	-74.77	4.33
248.48	-74.18	-23.50
249.42	-77.63	-27.21
250.36	-84.78	-4.13
251.31	-91.91	26.30
252.26	-95.10	43.01
253.21	-92.95	37.89
254.16	-88.35	24.33
255.12	-84.62	17.91
256.09	-83.62	26.15
257.05	-84.25	40.32
258.02	-85.01	49.62
259.00	-84.99	48.53
259.97	-84.50	43.32
260.95	-84.06	41.87
261.94	-83.86	47.44
262.93	-83.50	53.01
263.92	-82.48	50.08
264.92	-80.63	34.90
265.92	-78.46	13.31
266.92	-76.56	-7.70
267.93	-75.32	-24.49
268.94	-74.76	-39.19
269.95	-74.88	-54.40
270.97	-75.76	-69.11
271.99	-77.55	-77.63
273.02	-80.37	-74.35
274.05	-83.32	-62.43
275.08	-84.63	-53.14
276.12	-82.67	-57.50
277.16	-78.52	-78.56
278.21	-74.83	-114.64
279.26	-73.84	-163.35
280.31	-74.88	141.26
281.37	-76.26	86.47
282.43	-76.85	39.50
283.50	-77.17	7.26
284.57	-78.04	-3.53
285.64	-79.61	4.56
286.72	-81.02	15.26
287.80	-81.39	12.23
288.89	-80.77	-3.29
289.98	-79.83	-17.59
291.07	-79.16	-19.91
292.17	-78.67	-16.00
293.27	-78.04	-16.64
294.38	-77.21	-26.38
295.49	-76.55	-38.15
296.61	-76.47	-44.07
297.73	-77.02	-44.08
298.85	-78.04	-43.79
299.98	-79.33	-47.89
301.11	-80.64	-56.73
302.25	-81.71	-69.51
303.39	-82.22	-81.78
304.53	-81.78	-84.62
305.68	-80.22	-71.92
306.83	-78.79	-57.39
307.99	-79.25	-62.33
309.15	-81.87	-91.24
310.32	-84.42	-121.03
311.49	-84.78	-128.98
312.67	-83.76	-116.67
313.85	-83.41	-96.68
315.03	-84.64	-77.79
316.22	-86.26	-62.25
317.41	-87.09	-52.39
318.61	-87.03	-54.82
319.81	-86.42	-77.79
321.02	-86.07	-120.68
322.23	-87.35	-170.88
323.45	-90.84	143.60
324.67	-93.51	107.43
325.89	-91.51	82.87
327.12	-85.32	64.42
328.36	-79.15	39.87
329.60	-75.94	3.70
330.84	-75.15	-33.14
332.09	-75.72	-58.60
333.34	-76.53	-70.45
334.60	-76.45	-70.87
335.86	-75.81	-68.04
337.13	-76.47	-76.45
338.40	-79.10	-100.55
339.68	-81.25	-118.83
340.96	-80.53	-111.24
342.25	-78.08	-92.30
343.54	-76.28	-88.12
344.83	-75.92	-100.28
346.14	-76.50	-110.68
347.44	-77.35	-111.39
348.75	-77.55	-111.71
350.07	-76.56	-120.28
351.39	-74.97	-138.65
352.72	-73.78	-165.20
354.05	-74.84	172.31
355.38	-79.91	168.70
356.72	-85.90	-179.45
358.07	-86.68	-167.42
359.42	-81.86	-162.86
360.78	-77.32	-164.96
362.14	-76.33	-172.81
363.51	-77.27	174.06
364.88	-78.56	158.25
366.25	-79.80	147.84
367.64	-80.91	147.76
369.02	-82.21	147.77
370.42	-83.87	138.43
371.81	-84.85	133.69
373.22	-84.02	150.19
374.63	-82.45	167.79
376.04	-82.20	154.22
377.46	-85.48	115.83
378.88	-93.93	80.33
380.31	-101.59	75.37
381.75	-98.46	124.53
383.19	-88.28	-165.24
384.63	-84.35	-145.35
386.09	-86.74	-175.61
387.54	-85.12	160.80
389.00	-81.41	147.46
390.47	-87.50	104.08
391.95	-98.92	54.67
393.43	-97.79	74.84
394.91	-86.10	139.57
396.40	-81.99	144.21
397.90	-87.03	97.49
399.40	-89.87	92.06
400.90	-87.92	116.92
402.42	-84.84	93.85
403.94	-82.35	32.92
405.46	-80.99	-6.72
406.99	-81.62	-17.45
408.53	-84.59	-17.97
410.07	-86.11	-25.68
411.61	-82.28	-52.68
413.17	-76.83	-87.59
414.73	-74.34	-116.12
