Freq[Hz]	[dBV]	Phase[Deg]
10.00	-68.31	12.93
10.04	-68.34	13.82
10.08	-68.37	14.73
10.11	-68.40	15.64
10.15	-68.43	16.55
10.19	-68.45	17.48
10.23	-68.47	18.41
10.27	-68.49	19.35
10.31	-68.50	20.29
10.34	-68.51	21.25
10.38	-68.52	22.21
10.42	-68.52	23.18
10.46	-68.53	24.15
10.50	-68.53	25.14
10.54	-68.52	26.13
10.58	-68.52	27.14
10.62	-68.51	28.15
10.66	-68.50	29.17
10.70	-68.48	30.20
10.74	-68.47	31.24
10.78	-68.45	32.29
10.82	-68.42	33.35
10.86	-68.40	34.42
10.90	-68.37	35.51
10.95	-68.34	36.60
10.99	-68.31	37.70
11.03	-68.28	38.81
11.07	-68.24	39.94
11.11	-68.20	41.08
11.15	-68.16	42.23
11.20	-68.12	43.39
11.24	-68.08	44.56
11.28	-68.03	45.75
11.32	-67.98	46.95
11.37	-67.93	48.17
11.41	-67.87	49.40
11.45	-67.82	50.64
11.50	-67.76	51.89
11.54	-67.70	53.16
11.58	-67.64	54.45
11.63	-67.58	55.75
11.67	-67.52	57.07
11.71	-67.45	58.40
11.76	-67.38	59.75
11.80	-67.32	61.11
11.85	-67.25	62.49
11.89	-67.17	63.88
11.94	-67.10	65.29
11.98	-67.03	66.72
12.03	-66.95	68.15
12.07	-66.88	69.60
12.12	-66.80	71.06
12.16	-66.72	72.53
12.21	-66.64	74.02
12.26	-66.55	75.51
12.30	-66.47	77.02
12.35	-66.39	78.53
12.39	-66.30	80.05
12.44	-66.21	81.59
12.49	-66.12	83.12
12.54	-66.03	84.67
12.58	-65.94	86.22
12.63	-65.85	87.78
12.68	-65.76	89.34
12.73	-65.67	90.90
12.77	-65.57	92.47
12.82	-65.47	94.04
12.87	-65.38	95.62
12.92	-65.28	97.19
12.97	-65.18	98.76
13.02	-65.08	100.33
13.07	-64.98	101.90
13.12	-64.88	103.47
13.16	-64.78	105.04
13.21	-64.67	106.60
13.26	-64.57	108.15
13.31	-64.47	109.70
13.36	-64.36	111.24
13.41	-64.26	112.77
13.47	-64.15	114.30
13.52	-64.04	115.81
13.57	-63.94	117.31
13.62	-63.83	118.80
13.67	-63.72	120.28
13.72	-63.61	121.74
13.77	-63.50	123.18
13.83	-63.39	124.61
13.88	-63.29	126.02
13.93	-63.18	127.41
13.98	-63.07	128.78
14.04	-62.96	130.12
14.09	-62.85	131.45
14.14	-62.74	132.74
14.19	-62.63	134.02
14.25	-62.52	135.26
14.30	-62.41	136.48
14.36	-62.30	137.66
14.41	-62.20	138.82
14.46	-62.09	139.94
14.52	-61.98	141.02
14.57	-61.88	142.07
14.63	-61.77	143.08
14.68	-61.66	144.06
14.74	-61.56	144.99
14.80	-61.45	145.88
14.85	-61.35	146.74
14.91	-61.25	147.55
14.96	-61.15	148.33
15.02	-61.05	149.07
15.08	-60.95	149.78
15.13	-60.85	150.45
15.19	-60.75	151.08
15.25	-60.65	151.68
15.31	-60.55	152.25
15.36	-60.45	152.78
15.42	-60.36	153.28
15.48	-60.26	153.75
15.54	-60.17	154.19
15.60	-60.07	154.59
15.66	-59.98	154.97
15.71	-59.89	155.32
15.77	-59.80	155.64
15.83	-59.71	155.94
15.89	-59.62	156.21
15.95	-59.53	156.46
16.01	-59.44	156.68
16.07	-59.35	156.88
16.13	-59.27	157.05
16.19	-59.18	157.21
16.26	-59.10	157.35
16.32	-59.01	157.46
16.38	-58.93	157.57
16.44	-58.85	157.65
16.50	-58.76	157.72
16.56	-58.68	157.77
16.63	-58.60	157.82
16.69	-58.52	157.85
16.75	-58.45	157.87
16.82	-58.37	157.88
16.88	-58.29	157.89
16.94	-58.22	157.89
17.01	-58.14	157.88
17.07	-58.07	157.87
17.14	-58.00	157.86
17.20	-57.92	157.85
17.27	-57.85	157.84
17.33	-57.78	157.84
17.40	-57.71	157.84
17.46	-57.64	157.84
17.53	-57.58	157.86
17.59	-57.51	157.88
17.66	-57.44	157.92
17.73	-57.38	157.97
17.79	-57.32	158.02
17.86	-57.25	158.09
17.93	-57.19	158.16
18.00	-57.13	158.25
18.06	-57.07	158.34
18.13	-57.01	158.45
18.20	-56.95	158.56
18.27	-56.89	158.67
18.34	-56.83	158.80
18.41	-56.77	158.93
18.48	-56.72	159.06
18.55	-56.66	159.20
18.62	-56.61	159.35
18.69	-56.55	159.50
18.76	-56.50	159.65
18.83	-56.44	159.80
18.90	-56.39	159.96
18.97	-56.34	160.12
19.04	-56.28	160.28
19.11	-56.23	160.44
19.19	-56.18	160.60
19.26	-56.13	160.76
19.33	-56.08	160.91
19.40	-56.02	161.06
19.48	-55.97	161.21
19.55	-55.92	161.36
19.62	-55.87	161.50
19.70	-55.82	161.64
19.77	-55.77	161.76
19.85	-55.72	161.88
19.92	-55.67	162.00
20.00	-55.62	162.10
20.07	-55.56	162.20
20.15	-55.51	162.28
20.22	-55.46	162.35
20.30	-55.41	162.41
20.38	-55.36	162.45
20.45	-55.30	162.48
20.53	-55.25	162.50
20.61	-55.20	162.50
20.69	-55.14	162.48
20.77	-55.09	162.44
20.84	-55.03	162.39
20.92	-54.97	162.33
21.00	-54.92	162.25
21.08	-54.86	162.15
21.16	-54.80	162.03
21.24	-54.74	161.90
21.32	-54.68	161.76
21.40	-54.62	161.60
21.48	-54.56	161.42
21.56	-54.50	161.23
21.64	-54.43	161.02
21.73	-54.37	160.80
21.81	-54.30	160.56
21.89	-54.24	160.31
21.97	-54.17	160.04
22.06	-54.10	159.76
22.14	-54.03	159.46
22.22	-53.96	159.15
22.31	-53.89	158.82
22.39	-53.82	158.48
22.47	-53.74	158.13
22.56	-53.67	157.76
22.64	-53.59	157.38
22.73	-53.51	156.98
22.82	-53.44	156.57
22.90	-53.35	156.15
22.99	-53.27	155.72
23.07	-53.19	155.27
23.16	-53.10	154.81
23.25	-53.02	154.33
23.34	-52.93	153.85
23.43	-52.84	153.35
23.51	-52.74	152.84
23.60	-52.65	152.32
23.69	-52.55	151.78
23.78	-52.46	151.24
23.87	-52.36	150.68
23.96	-52.26	150.11
24.05	-52.15	149.53
24.14	-52.05	148.93
24.23	-51.94	148.32
24.32	-51.84	147.69
24.42	-51.73	147.06
24.51	-51.62	146.41
24.60	-51.50	145.74
24.69	-51.39	145.06
24.79	-51.28	144.37
24.88	-51.16	143.66
24.97	-51.04	142.94
25.07	-50.92	142.20
25.16	-50.80	141.45
25.26	-50.68	140.68
25.35	-50.56	139.90
25.45	-50.44	139.10
25.54	-50.31	138.28
25.64	-50.18	137.45
25.74	-50.06	136.60
25.84	-49.93	135.74
25.93	-49.80	134.86
26.03	-49.67	133.96
26.13	-49.54	133.04
26.23	-49.41	132.11
26.33	-49.27	131.16
26.43	-49.14	130.19
26.53	-49.00	129.20
26.63	-48.87	128.19
26.73	-48.74	127.17
26.83	-48.60	126.13
26.93	-48.47	125.06
27.03	-48.33	123.98
27.13	-48.20	122.88
27.23	-48.07	121.77
27.34	-47.94	120.63
27.44	-47.81	119.47
27.54	-47.68	118.30
27.65	-47.56	117.10
27.75	-47.44	115.89
27.86	-47.32	114.66
27.96	-47.20	113.41
28.07	-47.09	112.14
28.17	-46.98	110.85
28.28	-46.88	109.54
28.39	-46.78	108.21
28.49	-46.69	106.86
28.60	-46.60	105.49
28.71	-46.52	104.10
28.82	-46.44	102.69
28.93	-46.37	101.26
29.03	-46.30	99.82
29.14	-46.25	98.35
29.25	-46.20	96.86
29.36	-46.16	95.35
29.48	-46.12	93.83
29.59	-46.10	92.28
29.70	-46.08	90.72
29.81	-46.07	89.15
29.92	-46.07	87.57
30.04	-46.08	85.99
30.15	-46.10	84.39
30.26	-46.12	82.80
30.38	-46.15	81.20
30.49	-46.19	79.61
30.61	-46.24	78.02
30.72	-46.30	76.44
30.84	-46.37	74.87
30.95	-46.44	73.31
31.07	-46.52	71.77
31.19	-46.61	70.25
31.31	-46.71	68.75
31.42	-46.82	67.28
31.54	-46.93	65.83
31.66	-47.06	64.42
31.78	-47.19	63.04
31.90	-47.33	61.70
32.02	-47.47	60.40
32.14	-47.63	59.14
32.26	-47.79	57.93
32.39	-47.97	56.78
32.51	-48.15	55.67
32.63	-48.33	54.61
32.75	-48.53	53.59
32.88	-48.73	52.62
33.00	-48.94	51.69
33.13	-49.15	50.79
33.25	-49.37	49.94
33.38	-49.60	49.11
33.50	-49.83	48.33
33.63	-50.06	47.57
33.76	-50.30	46.84
33.88	-50.55	46.14
34.01	-50.80	45.46
34.14	-51.05	44.80
34.27	-51.30	44.16
34.40	-51.56	43.53
34.53	-51.82	42.92
34.66	-52.08	42.32
34.79	-52.35	41.73
34.92	-52.61	41.14
35.05	-52.88	40.56
35.18	-53.14	39.97
35.32	-53.41	39.38
35.45	-53.67	38.80
35.58	-53.94	38.22
35.72	-54.21	37.66
35.85	-54.48	37.11
35.99	-54.76	36.58
36.12	-55.04	36.09
36.26	-55.33	35.62
36.40	-55.62	35.20
36.53	-55.92	34.82
36.67	-56.22	34.49
36.81	-56.54	34.21
36.95	-56.86	34.00
37.09	-57.20	33.86
37.23	-57.55	33.79
37.37	-57.91	33.80
37.51	-58.28	33.90
37.65	-58.67	34.09
37.79	-59.07	34.38
37.94	-59.50	34.79
38.08	-59.93	35.30
38.22	-60.39	35.94
38.37	-60.86	36.70
38.51	-61.35	37.59
38.66	-61.84	38.61
38.80	-62.33	39.76
38.95	-62.83	41.05
39.10	-63.32	42.47
39.24	-63.80	44.04
39.39	-64.28	45.74
39.54	-64.73	47.59
39.69	-65.16	49.59
39.84	-65.57	51.74
39.99	-65.94	54.04
40.14	-66.28	56.50
40.29	-66.58	59.12
40.45	-66.84	61.91
40.60	-67.04	64.85
40.75	-67.19	67.97
40.90	-67.28	71.25
41.06	-67.30	74.71
41.21	-67.25	78.34
41.37	-67.14	82.12
41.53	-66.97	86.03
41.68	-66.74	90.04
41.84	-66.46	94.14
42.00	-66.13	98.29
42.16	-65.75	102.48
42.32	-65.34	106.68
42.47	-64.90	110.86
42.63	-64.43	115.01
42.80	-63.93	119.08
42.96	-63.41	123.07
43.12	-62.89	126.93
43.28	-62.35	130.64
43.45	-61.81	134.18
43.61	-61.28	137.51
43.77	-60.76	140.60
43.94	-60.25	143.42
44.10	-59.76	145.96
44.27	-59.29	148.20
44.44	-58.85	150.18
44.61	-58.42	151.91
44.77	-58.01	153.40
44.94	-57.62	154.68
45.11	-57.25	155.75
45.28	-56.89	156.64
45.45	-56.55	157.37
45.63	-56.22	157.95
45.80	-55.91	158.41
45.97	-55.61	158.76
46.14	-55.32	159.03
46.32	-55.04	159.23
46.49	-54.77	159.39
46.67	-54.51	159.53
46.84	-54.26	159.67
47.02	-54.01	159.84
47.20	-53.77	160.02
47.38	-53.54	160.23
47.56	-53.31	160.45
47.74	-53.09	160.69
47.92	-52.87	160.93
48.10	-52.66	161.16
48.28	-52.45	161.40
48.46	-52.24	161.62
48.64	-52.04	161.83
48.83	-51.84	162.02
49.01	-51.65	162.18
49.20	-51.45	162.30
49.38	-51.26	162.39
49.57	-51.08	162.44
49.75	-50.89	162.43
49.94	-50.71	162.37
50.13	-50.52	162.25
50.32	-50.34	162.08
50.51	-50.16	161.86
50.70	-49.97	161.60
50.89	-49.79	161.31
51.08	-49.61	160.98
51.28	-49.42	160.62
51.47	-49.24	160.24
51.66	-49.05	159.85
51.86	-48.86	159.44
52.05	-48.67	159.03
52.25	-48.48	158.61
52.45	-48.28	158.20
52.65	-48.08	157.81
52.85	-47.88	157.43
53.04	-47.67	157.06
53.24	-47.46	156.72
53.45	-47.24	156.39
53.65	-47.03	156.08
53.85	-46.81	155.78
54.05	-46.59	155.49
54.26	-46.37	155.21
54.46	-46.15	154.94
54.67	-45.93	154.68
54.87	-45.71	154.42
55.08	-45.49	154.16
55.29	-45.27	153.91
55.50	-45.06	153.65
55.71	-44.85	153.40
55.92	-44.64	153.14
56.13	-44.44	152.87
56.34	-44.24	152.60
56.55	-44.04	152.32
56.77	-43.84	152.03
56.98	-43.65	151.73
57.19	-43.46	151.42
57.41	-43.27	151.10
57.63	-43.09	150.77
57.84	-42.90	150.42
58.06	-42.72	150.05
58.28	-42.53	149.67
58.50	-42.35	149.27
58.72	-42.17	148.85
58.94	-41.99	148.41
59.17	-41.81	147.94
59.39	-41.63	147.46
59.61	-41.45	146.96
59.84	-41.27	146.43
60.06	-41.09	145.89
60.29	-40.91	145.32
60.52	-40.73	144.74
60.75	-40.54	144.14
60.98	-40.36	143.51
61.21	-40.18	142.87
61.44	-39.99	142.20
61.67	-39.80	141.52
61.90	-39.62	140.82
62.14	-39.43	140.10
62.37	-39.24	139.36
62.61	-39.05	138.60
62.84	-38.86	137.82
63.08	-38.67	137.03
63.32	-38.47	136.21
63.56	-38.28	135.38
63.80	-38.08	134.53
64.04	-37.89	133.66
64.28	-37.69	132.77
64.52	-37.50	131.87
64.76	-37.30	130.95
65.01	-37.10	130.00
65.25	-36.90	129.04
65.50	-36.71	128.05
65.75	-36.52	127.03
66.00	-36.32	125.98
66.24	-36.13	124.90
66.49	-35.95	123.79
66.75	-35.76	122.63
67.00	-35.58	121.44
67.25	-35.41	120.21
67.50	-35.24	118.93
67.76	-35.07	117.60
68.01	-34.91	116.23
68.27	-34.76	114.81
68.53	-34.61	113.35
68.79	-34.46	111.86
69.05	-34.32	110.32
69.31	-34.18	108.75
69.57	-34.04	107.14
69.83	-33.91	105.50
70.09	-33.79	103.83
70.36	-33.66	102.13
70.62	-33.54	100.40
70.89	-33.43	98.65
71.16	-33.32	96.88
71.43	-33.21	95.10
71.70	-33.11	93.30
71.97	-33.02	91.48
72.24	-32.94	89.67
72.51	-32.86	87.85
72.79	-32.80	86.03
73.06	-32.74	84.21
73.34	-32.70	82.41
73.61	-32.67	80.61
73.89	-32.65	78.83
74.17	-32.64	77.07
74.45	-32.64	75.32
74.73	-32.65	73.59
75.01	-32.67	71.89
75.29	-32.69	70.21
75.58	-32.72	68.56
75.86	-32.76	66.93
76.15	-32.79	65.34
76.44	-32.84	63.78
76.73	-32.88	62.26
77.02	-32.93	60.77
77.31	-32.99	59.32
77.60	-33.04	57.90
77.89	-33.10	56.53
78.18	-33.17	55.19
78.48	-33.24	53.89
78.78	-33.31	52.63
79.07	-33.39	51.41
79.37	-33.47	50.23
79.67	-33.56	49.09
79.97	-33.65	47.99
80.27	-33.74	46.92
80.58	-33.84	45.88
80.88	-33.94	44.87
81.19	-34.04	43.89
81.49	-34.14	42.92
81.80	-34.24	41.98
82.11	-34.34	41.04
82.42	-34.43	40.13
82.73	-34.53	39.22
83.04	-34.63	38.33
83.35	-34.72	37.45
83.67	-34.81	36.59
83.99	-34.91	35.74
84.30	-35.00	34.90
84.62	-35.10	34.08
84.94	-35.19	33.27
85.26	-35.29	32.48
85.58	-35.38	31.71
85.90	-35.48	30.96
86.23	-35.57	30.23
86.55	-35.67	29.53
86.88	-35.76	28.85
87.21	-35.85	28.20
87.54	-35.94	27.59
87.87	-36.03	27.01
88.20	-36.11	26.47
88.53	-36.19	25.96
88.87	-36.26	25.49
89.20	-36.34	25.04
89.54	-36.41	24.61
89.88	-36.48	24.21
90.22	-36.56	23.82
90.56	-36.63	23.43
90.90	-36.71	23.06
91.24	-36.78	22.68
91.59	-36.86	22.31
91.93	-36.94	21.93
92.28	-37.02	21.54
92.63	-37.10	21.15
92.98	-37.17	20.74
93.33	-37.24	20.32
93.68	-37.31	19.89
94.03	-37.38	19.43
94.39	-37.44	18.96
94.74	-37.50	18.49
95.10	-37.56	18.01
95.46	-37.61	17.55
95.82	-37.66	17.11
96.18	-37.71	16.70
96.54	-37.76	16.33
96.91	-37.82	16.01
97.27	-37.87	15.73
97.64	-37.92	15.50
98.01	-37.98	15.29
98.38	-38.04	15.11
98.75	-38.10	14.94
99.12	-38.16	14.78
99.50	-38.23	14.62
99.87	-38.30	14.44
100.25	-38.38	14.25
100.63	-38.45	14.04
101.01	-38.53	13.81
101.39	-38.60	13.57
101.77	-38.66	13.32
102.16	-38.72	13.04
102.54	-38.76	12.76
102.93	-38.80	12.45
103.32	-38.82	12.14
103.71	-38.83	11.84
104.10	-38.85	11.55
104.49	-38.86	11.29
104.88	-38.88	11.06
105.28	-38.91	10.89
105.68	-38.95	10.78
106.08	-39.00	10.73
106.48	-39.06	10.70
106.88	-39.13	10.69
107.28	-39.21	10.65
107.69	-39.29	10.57
108.09	-39.36	10.42
108.50	-39.43	10.18
108.91	-39.49	9.82
109.32	-39.54	9.38
109.73	-39.58	8.90
110.15	-39.62	8.39
110.56	-39.65	7.90
110.98	-39.68	7.46
111.40	-39.70	7.10
111.82	-39.72	6.83
112.24	-39.74	6.66
112.67	-39.76	6.57
113.09	-39.78	6.53
113.52	-39.80	6.53
113.95	-39.82	6.55
114.38	-39.86	6.58
114.81	-39.90	6.60
115.24	-39.95	6.60
115.68	-40.00	6.58
116.11	-40.06	6.52
116.55	-40.11	6.42
116.99	-40.16	6.26
117.43	-40.20	6.04
117.87	-40.24	5.77
118.32	-40.27	5.48
118.77	-40.30	5.18
119.21	-40.33	4.92
119.66	-40.36	4.71
120.12	-40.39	4.58
120.57	-40.41	4.55
121.02	-40.44	4.60
121.48	-40.48	4.68
121.94	-40.51	4.75
122.40	-40.54	4.79
122.86	-40.58	4.73
123.32	-40.61	4.55
123.79	-40.64	4.25
124.26	-40.67	3.87
124.73	-40.70	3.48
125.20	-40.71	3.10
125.67	-40.73	2.79
126.14	-40.73	2.61
126.62	-40.72	2.57
127.10	-40.72	2.63
127.58	-40.71	2.76
128.06	-40.71	2.91
128.54	-40.71	3.05
129.03	-40.73	3.13
129.51	-40.77	3.12
130.00	-40.81	3.04
130.49	-40.87	2.89
130.98	-40.93	2.70
131.48	-40.99	2.46
131.98	-41.04	2.19
132.47	-41.08	1.91
132.97	-41.11	1.64
133.48	-41.14	1.40
133.98	-41.16	1.21
134.48	-41.18	1.09
134.99	-41.20	1.06
135.50	-41.21	1.13
136.01	-41.22	1.25
136.53	-41.24	1.39
137.04	-41.26	1.51
137.56	-41.29	1.58
138.08	-41.33	1.56
138.60	-41.37	1.45
139.12	-41.41	1.27
139.65	-41.45	1.05
140.17	-41.47	0.82
140.70	-41.48	0.60
141.23	-41.48	0.40
141.77	-41.46	0.24
142.30	-41.44	0.12
142.84	-41.43	0.04
143.38	-41.43	0.00
143.92	-41.45	0.00
144.46	-41.48	0.03
145.01	-41.53	0.06
145.55	-41.59	0.05
146.10	-41.64	-0.04
146.65	-41.69	-0.22
147.21	-41.72	-0.51
147.76	-41.74	-0.84
148.32	-41.76	-1.14
148.88	-41.77	-1.33
149.44	-41.78	-1.34
150.01	-41.79	-1.13
150.57	-41.80	-0.79
151.14	-41.81	-0.43
151.71	-41.84	-0.15
152.28	-41.87	-0.08
152.86	-41.92	-0.30
153.43	-41.98	-0.76
154.01	-42.02	-1.32
154.59	-42.06	-1.88
155.18	-42.07	-2.30
155.76	-42.05	-2.48
156.35	-42.00	-2.44
156.94	-41.94	-2.26
157.53	-41.90	-2.01
158.13	-41.87	-1.80
158.72	-41.89	-1.67
159.32	-41.94	-1.66
159.93	-42.00	-1.73
160.53	-42.06	-1.89
161.13	-42.11	-2.10
161.74	-42.14	-2.36
162.35	-42.14	-2.63
162.97	-42.14	-2.86
163.58	-42.13	-3.03
164.20	-42.12	-3.08
164.82	-42.13	-3.01
165.44	-42.14	-2.88
166.06	-42.16	-2.78
166.69	-42.18	-2.79
167.32	-42.19	-2.97
167.95	-42.19	-3.31
168.58	-42.18	-3.70
169.22	-42.18	-4.02
169.86	-42.19	-4.14
170.50	-42.21	-3.97
171.14	-42.24	-3.62
171.79	-42.28	-3.24
172.44	-42.32	-3.00
173.09	-42.36	-3.06
173.74	-42.40	-3.46
174.40	-42.42	-4.05
175.06	-42.44	-4.64
175.72	-42.44	-5.07
176.38	-42.43	-5.17
177.04	-42.41	-5.01
177.71	-42.39	-4.70
178.38	-42.38	-4.35
179.06	-42.40	-4.08
179.73	-42.44	-3.94
180.41	-42.49	-3.93
181.09	-42.53	-4.03
181.77	-42.55	-4.21
182.46	-42.54	-4.45
183.15	-42.51	-4.71
183.84	-42.49	-4.92
184.53	-42.47	-5.03
185.23	-42.49	-5.00
185.93	-42.52	-4.91
186.63	-42.56	-4.86
187.33	-42.60	-4.94
188.04	-42.62	-5.25
188.75	-42.64	-5.71
189.46	-42.65	-6.17
190.18	-42.65	-6.48
190.90	-42.65	-6.49
191.62	-42.66	-6.25
192.34	-42.67	-5.93
193.07	-42.70	-5.71
193.79	-42.75	-5.77
194.53	-42.80	-6.07
195.26	-42.85	-6.43
196.00	-42.87	-6.64
196.74	-42.84	-6.53
197.48	-42.78	-6.14
198.22	-42.71	-5.70
198.97	-42.69	-5.43
199.72	-42.73	-5.56
200.48	-42.83	-6.04
201.23	-42.94	-6.65
201.99	-43.00	-7.16
202.75	-42.97	-7.37
203.52	-42.87	-7.30
204.29	-42.76	-7.08
205.06	-42.69	-6.82
205.83	-42.70	-6.66
206.61	-42.78	-6.61
207.39	-42.87	-6.65
208.17	-42.93	-6.80
208.96	-42.93	-7.01
209.74	-42.90	-7.24
210.54	-42.87	-7.40
211.33	-42.86	-7.43
212.13	-42.90	-7.34
212.93	-42.93	-7.23
213.73	-42.95	-7.21
214.54	-42.92	-7.36
215.35	-42.87	-7.61
216.16	-42.83	-7.79
216.98	-42.84	-7.75
217.80	-42.93	-7.46
218.62	-43.03	-7.13
219.44	-43.11	-7.01
220.27	-43.12	-7.33
221.10	-43.06	-7.99
221.94	-42.98	-8.65
222.77	-42.93	-8.95
223.61	-42.93	-8.70
224.46	-42.98	-8.18
225.30	-43.04	-7.74
226.15	-43.08	-7.71
227.01	-43.11	-8.03
227.86	-43.11	-8.41
228.72	-43.10	-8.54
229.59	-43.07	-8.29
230.45	-43.05	-7.90
231.32	-43.04	-7.63
232.20	-43.07	-7.71
233.07	-43.10	-8.05
233.95	-43.11	-8.42
234.84	-43.08	-8.59
235.72	-43.02	-8.55
236.61	-42.95	-8.44
237.50	-42.94	-8.45
238.40	-42.98	-8.65
239.30	-43.04	-8.95
240.20	-43.07	-9.21
241.11	-43.02	-9.33
242.02	-42.95	-9.36
242.93	-42.92	-9.37
243.85	-42.99	-9.44
244.77	-43.12	-9.58
245.69	-43.21	-9.71
246.62	-43.16	-9.81
247.55	-43.01	-9.82
248.48	-42.86	-9.75
249.42	-42.85	-9.59
250.36	-42.97	-9.37
251.31	-43.14	-9.24
252.26	-43.23	-9.33
253.21	-43.19	-9.64
254.16	-43.09	-10.00
255.12	-43.03	-10.21
256.09	-43.03	-10.18
257.05	-43.07	-10.06
258.02	-43.09	-10.03
259.00	-43.07	-10.19
259.97	-43.05	-10.43
260.95	-43.07	-10.62
261.94	-43.16	-10.70
262.93	-43.23	-10.74
263.92	-43.20	-10.84
264.92	-43.06	-11.02
265.92	-42.91	-11.18
266.92	-42.88	-11.17
267.93	-43.00	-10.98
268.94	-43.16	-10.82
269.95	-43.20	-10.88
270.97	-43.11	-11.19
271.99	-42.98	-11.50
273.02	-42.92	-11.54
274.05	-42.95	-11.35
275.08	-43.00	-11.23
276.12	-43.00	-11.46
277.16	-42.95	-11.92
278.21	-42.92	-12.28
279.26	-42.95	-12.25
280.31	-43.01	-12.08
281.37	-43.05	-12.20
282.43	-43.04	-12.81
283.50	-43.03	-13.51
284.57	-43.03	-13.75
285.64	-43.06	-13.44
286.72	-43.10	-13.14
287.80	-43.10	-13.41
288.89	-43.08	-14.05
289.98	-43.07	-14.31
291.07	-43.10	-13.67
292.17	-43.14	-12.84
293.27	-43.14	-12.85
294.38	-43.08	-14.00
295.49	-43.02	-15.13
296.61	-43.00	-15.02
297.73	-43.03	-13.89
298.85	-43.06	-13.00
299.98	-43.06	-13.28
301.11	-43.05	-14.16
302.25	-43.03	-14.74
303.39	-43.02	-14.74
304.53	-43.00	-14.66
305.68	-42.98	-14.93
306.83	-42.97	-15.34
307.99	-43.03	-15.42
309.15	-43.12	-15.12
310.32	-43.15	-15.03
311.49	-43.02	-15.68
312.67	-42.83	-16.62
313.85	-42.78	-16.96
315.03	-42.92	-16.44
316.22	-43.06	-15.96
317.41	-43.03	-16.34
318.61	-42.90	-17.23
319.81	-42.85	-17.84
321.02	-42.92	-17.94
322.23	-43.01	-18.09
323.45	-43.03	-18.73
324.67	-43.03	-19.45
325.89	-43.10	-19.66
327.12	-43.24	-19.43
328.36	-43.32	-19.39
329.60	-43.30	-19.85
330.84	-43.27	-20.30
332.09	-43.31	-20.21
333.34	-43.38	-19.89
334.60	-43.38	-19.97
335.86	-43.32	-20.43
337.13	-43.34	-20.53
338.40	-43.51	-19.96
339.68	-43.63	-19.55
340.96	-43.50	-20.06
342.25	-43.30	-20.89
343.54	-43.33	-20.95
344.83	-43.56	-20.31
346.14	-43.70	-19.93
347.44	-43.65	-20.23
348.75	-43.57	-20.66
350.07	-43.58	-20.79
351.39	-43.63	-20.67
352.72	-43.62	-20.49
354.05	-43.61	-20.54
355.38	-43.69	-21.10
356.72	-43.78	-21.64
358.07	-43.74	-21.17
359.42	-43.59	-20.01
360.78	-43.55	-19.89
362.14	-43.69	-21.23
363.51	-43.82	-22.12
364.88	-43.80	-21.43
366.25	-43.75	-20.61
367.64	-43.78	-20.97
369.02	-43.85	-21.61
370.42	-43.86	-21.42
371.81	-43.85	-21.01
373.22	-43.88	-21.35
374.63	-43.90	-21.93
376.04	-43.86	-21.73
377.46	-43.80	-21.20
378.88	-43.78	-21.40
380.31	-43.83	-22.00
381.75	-43.90	-21.83
383.19	-43.96	-21.29
384.63	-43.96	-21.86
386.09	-43.94	-22.87
387.54	-44.04	-22.03
389.00	-44.18	-19.96
390.47	-44.17	-19.67
391.95	-44.03	-21.11
393.43	-43.98	-21.63
394.91	-44.05	-20.83
396.40	-44.06	-20.22
397.90	-44.02	-20.27
399.40	-43.99	-20.57
400.90	-43.98	-20.57
402.42	-43.89	-19.80
403.94	-43.82	-19.21
405.46	-43.94	-20.25
406.99	-44.08	-21.46
408.53	-43.98	-20.52
410.07	-43.79	-19.17
411.61	-43.76	-19.97
413.17	-43.81	-21.16
414.73	-43.81	-20.71
416.29	-43.77	-20.20
417.86	-43.75	-20.86
419.44	-43.78	-21.24
421.02	-43.84	-20.73
422.61	-43.83	-20.83
424.21	-43.78	-21.70
425.81	-43.79	-21.97
427.41	-43.82	-21.74
429.03	-43.73	-22.07
430.65	-43.69	-22.53
432.27	-43.87	-22.35
433.90	-43.91	-22.26
435.54	-43.61	-22.81
437.18	-43.56	-23.34
438.83	-43.89	-23.47
440.49	-44.00	-23.46
442.15	-43.84	-23.54
443.82	-43.78	-23.86
