Freq[Hz]	[dBV]	Phase[Deg]
10.00	-59.05	153.99
10.04	-59.13	154.28
10.08	-59.22	154.57
10.11	-59.30	154.85
10.15	-59.39	155.12
10.19	-59.48	155.38
10.23	-59.57	155.64
10.27	-59.66	155.89
10.31	-59.75	156.14
10.34	-59.84	156.38
10.38	-59.93	156.61
10.42	-60.03	156.84
10.46	-60.12	157.06
10.50	-60.22	157.28
10.54	-60.31	157.49
10.58	-60.41	157.71
10.62	-60.51	157.91
10.66	-60.60	158.12
10.70	-60.70	158.32
10.74	-60.80	158.53
10.78	-60.90	158.73
10.82	-60.99	158.93
10.86	-61.09	159.13
10.90	-61.19	159.33
10.95	-61.28	159.53
10.99	-61.38	159.73
11.03	-61.47	159.94
11.07	-61.57	160.14
11.11	-61.66	160.35
11.15	-61.75	160.57
11.20	-61.84	160.79
11.24	-61.93	161.01
11.28	-62.02	161.24
11.32	-62.11	161.48
11.37	-62.19	161.72
11.41	-62.27	161.97
11.45	-62.36	162.23
11.50	-62.43	162.50
11.54	-62.51	162.77
11.58	-62.59	163.06
11.63	-62.66	163.36
11.67	-62.73	163.67
11.71	-62.79	163.99
11.76	-62.86	164.33
11.80	-62.92	164.68
11.85	-62.97	165.05
11.89	-63.03	165.42
11.94	-63.08	165.81
11.98	-63.13	166.21
12.03	-63.17	166.62
12.07	-63.21	167.05
12.12	-63.25	167.48
12.16	-63.29	167.93
12.21	-63.33	168.38
12.26	-63.36	168.84
12.30	-63.39	169.31
12.35	-63.41	169.80
12.39	-63.44	170.28
12.44	-63.46	170.78
12.49	-63.48	171.28
12.54	-63.50	171.79
12.58	-63.51	172.31
12.63	-63.53	172.83
12.68	-63.54	173.35
12.73	-63.55	173.88
12.77	-63.55	174.42
12.82	-63.56	174.95
12.87	-63.56	175.49
12.92	-63.56	176.03
12.97	-63.56	176.57
13.02	-63.56	177.12
13.07	-63.56	177.66
13.12	-63.55	178.20
13.16	-63.55	178.74
13.21	-63.54	179.28
13.26	-63.53	179.81
13.31	-63.52	-179.66
13.36	-63.51	-179.13
13.41	-63.50	-178.61
13.47	-63.49	-178.10
13.52	-63.48	-177.59
13.57	-63.47	-177.09
13.62	-63.45	-176.60
13.67	-63.44	-176.12
13.72	-63.43	-175.65
13.77	-63.41	-175.19
13.83	-63.40	-174.75
13.88	-63.38	-174.31
13.93	-63.37	-173.89
13.98	-63.36	-173.49
14.04	-63.34	-173.10
14.09	-63.33	-172.73
14.14	-63.32	-172.38
14.19	-63.31	-172.04
14.25	-63.30	-171.73
14.30	-63.29	-171.44
14.36	-63.28	-171.17
14.41	-63.28	-170.92
14.46	-63.27	-170.70
14.52	-63.27	-170.51
14.57	-63.27	-170.34
14.63	-63.27	-170.21
14.68	-63.28	-170.10
14.74	-63.28	-170.02
14.80	-63.29	-169.97
14.85	-63.30	-169.95
14.91	-63.31	-169.96
14.96	-63.33	-170.00
15.02	-63.34	-170.07
15.08	-63.36	-170.16
15.13	-63.38	-170.28
15.19	-63.40	-170.42
15.25	-63.43	-170.59
15.31	-63.45	-170.79
15.36	-63.48	-171.01
15.42	-63.50	-171.25
15.48	-63.53	-171.51
15.54	-63.56	-171.80
15.60	-63.59	-172.11
15.66	-63.62	-172.44
15.71	-63.65	-172.79
15.77	-63.68	-173.15
15.83	-63.71	-173.54
15.89	-63.74	-173.94
15.95	-63.77	-174.36
16.01	-63.80	-174.80
16.07	-63.83	-175.25
16.13	-63.87	-175.71
16.19	-63.90	-176.19
16.26	-63.93	-176.68
16.32	-63.95	-177.18
16.38	-63.98	-177.69
16.44	-64.01	-178.21
16.50	-64.04	-178.74
16.56	-64.06	-179.28
16.63	-64.08	-179.82
16.69	-64.10	179.64
16.75	-64.12	179.09
16.82	-64.14	178.54
16.88	-64.15	177.98
16.94	-64.17	177.43
17.01	-64.18	176.88
17.07	-64.18	176.33
17.14	-64.19	175.79
17.20	-64.19	175.25
17.27	-64.19	174.71
17.33	-64.18	174.19
17.40	-64.17	173.67
17.46	-64.15	173.16
17.53	-64.14	172.67
17.59	-64.11	172.19
17.66	-64.08	171.73
17.73	-64.05	171.28
17.79	-64.01	170.84
17.86	-63.97	170.42
17.93	-63.93	170.01
18.00	-63.88	169.62
18.06	-63.82	169.24
18.13	-63.77	168.87
18.20	-63.70	168.51
18.27	-63.64	168.17
18.34	-63.57	167.84
18.41	-63.49	167.51
18.48	-63.42	167.21
18.55	-63.34	166.91
18.62	-63.26	166.62
18.69	-63.17	166.34
18.76	-63.08	166.07
18.83	-62.99	165.81
18.90	-62.89	165.55
18.97	-62.79	165.31
19.04	-62.69	165.07
19.11	-62.59	164.84
19.19	-62.49	164.62
19.26	-62.38	164.40
19.33	-62.27	164.19
19.40	-62.16	163.98
19.48	-62.05	163.78
19.55	-61.94	163.58
19.62	-61.82	163.38
19.70	-61.71	163.19
19.77	-61.59	162.99
19.85	-61.47	162.80
19.92	-61.36	162.61
20.00	-61.24	162.42
20.07	-61.12	162.23
20.15	-61.01	162.04
20.22	-60.89	161.85
20.30	-60.77	161.65
20.38	-60.66	161.45
20.45	-60.54	161.25
20.53	-60.43	161.04
20.61	-60.31	160.83
20.69	-60.20	160.61
20.77	-60.09	160.38
20.84	-59.98	160.15
20.92	-59.88	159.92
21.00	-59.77	159.68
21.08	-59.67	159.44
21.16	-59.56	159.20
21.24	-59.46	158.95
21.32	-59.35	158.70
21.40	-59.25	158.44
21.48	-59.15	158.19
21.56	-59.05	157.93
21.64	-58.95	157.67
21.73	-58.85	157.41
21.81	-58.75	157.14
21.89	-58.65	156.88
21.97	-58.55	156.62
22.06	-58.45	156.35
22.14	-58.36	156.09
22.22	-58.26	155.83
22.31	-58.16	155.57
22.39	-58.06	155.31
22.47	-57.96	155.05
22.56	-57.86	154.79
22.64	-57.76	154.54
22.73	-57.66	154.29
22.82	-57.56	154.04
22.90	-57.46	153.80
22.99	-57.36	153.56
23.07	-57.26	153.33
23.16	-57.15	153.10
23.25	-57.05	152.88
23.34	-56.94	152.67
23.43	-56.83	152.46
23.51	-56.73	152.26
23.60	-56.62	152.06
23.69	-56.50	151.88
23.78	-56.39	151.70
23.87	-56.28	151.52
23.96	-56.16	151.36
24.05	-56.05	151.20
24.14	-55.93	151.04
24.23	-55.81	150.89
24.32	-55.69	150.74
24.42	-55.57	150.60
24.51	-55.45	150.46
24.60	-55.33	150.32
24.69	-55.21	150.19
24.79	-55.09	150.06
24.88	-54.96	149.93
24.97	-54.84	149.80
25.07	-54.72	149.68
25.16	-54.60	149.55
25.26	-54.47	149.43
25.35	-54.35	149.30
25.45	-54.23	149.18
25.54	-54.11	149.05
25.64	-53.98	148.92
25.74	-53.86	148.79
25.84	-53.74	148.65
25.93	-53.62	148.52
26.03	-53.50	148.37
26.13	-53.39	148.23
26.23	-53.27	148.08
26.33	-53.15	147.92
26.43	-53.04	147.76
26.53	-52.93	147.58
26.63	-52.81	147.41
26.73	-52.70	147.22
26.83	-52.59	147.03
26.93	-52.49	146.83
27.03	-52.38	146.62
27.13	-52.27	146.40
27.23	-52.17	146.18
27.34	-52.07	145.95
27.44	-51.96	145.70
27.54	-51.86	145.45
27.65	-51.76	145.19
27.75	-51.66	144.92
27.86	-51.56	144.64
27.96	-51.46	144.35
28.07	-51.37	144.05
28.17	-51.27	143.74
28.28	-51.17	143.41
28.39	-51.08	143.08
28.49	-50.98	142.73
28.60	-50.89	142.38
28.71	-50.79	142.01
28.82	-50.70	141.63
28.93	-50.60	141.23
29.03	-50.51	140.82
29.14	-50.41	140.40
29.25	-50.32	139.97
29.36	-50.22	139.52
29.48	-50.13	139.05
29.59	-50.03	138.57
29.70	-49.94	138.08
29.81	-49.84	137.57
29.92	-49.75	137.04
30.04	-49.65	136.50
30.15	-49.56	135.95
30.26	-49.46	135.37
30.38	-49.37	134.78
30.49	-49.27	134.17
30.61	-49.17	133.54
30.72	-49.08	132.89
30.84	-48.98	132.23
30.95	-48.89	131.54
31.07	-48.79	130.84
31.19	-48.70	130.11
31.31	-48.60	129.37
31.42	-48.51	128.60
31.54	-48.41	127.81
31.66	-48.32	127.00
31.78	-48.22	126.17
31.90	-48.13	125.32
32.02	-48.04	124.44
32.14	-47.94	123.54
32.26	-47.85	122.61
32.39	-47.76	121.66
32.51	-47.66	120.68
32.63	-47.57	119.68
32.75	-47.48	118.66
32.88	-47.39	117.61
33.00	-47.30	116.54
33.13	-47.22	115.45
33.25	-47.13	114.34
33.38	-47.05	113.20
33.50	-46.97	112.05
33.63	-46.89	110.87
33.76	-46.81	109.67
33.88	-46.74	108.46
34.01	-46.67	107.22
34.14	-46.60	105.97
34.27	-46.54	104.70
34.40	-46.48	103.41
34.53	-46.43	102.10
34.66	-46.38	100.78
34.79	-46.33	99.44
34.92	-46.29	98.09
35.05	-46.25	96.72
35.18	-46.22	95.34
35.32	-46.20	93.94
35.45	-46.18	92.54
35.58	-46.17	91.12
35.72	-46.16	89.70
35.85	-46.16	88.27
35.99	-46.17	86.84
36.12	-46.18	85.40
36.26	-46.20	83.97
36.40	-46.23	82.54
36.53	-46.26	81.11
36.67	-46.30	79.69
36.81	-46.35	78.28
36.95	-46.41	76.88
37.09	-46.47	75.50
37.23	-46.54	74.13
37.37	-46.63	72.78
37.51	-46.72	71.45
37.65	-46.81	70.14
37.79	-46.92	68.86
37.94	-47.04	67.61
38.08	-47.16	66.40
38.22	-47.30	65.21
38.37	-47.44	64.06
38.51	-47.60	62.94
38.66	-47.76	61.86
38.80	-47.93	60.81
38.95	-48.11	59.79
39.10	-48.29	58.80
39.24	-48.48	57.84
39.39	-48.68	56.91
39.54	-48.88	56.01
39.69	-49.08	55.14
39.84	-49.30	54.29
39.99	-49.51	53.48
40.14	-49.73	52.69
40.29	-49.95	51.92
40.45	-50.17	51.18
40.60	-50.40	50.46
40.75	-50.62	49.77
40.90	-50.85	49.09
41.06	-51.08	48.44
41.21	-51.30	47.81
41.37	-51.53	47.20
41.53	-51.76	46.62
41.68	-51.99	46.07
41.84	-52.23	45.55
42.00	-52.47	45.06
42.16	-52.73	44.61
42.32	-52.99	44.20
42.47	-53.27	43.83
42.63	-53.56	43.51
42.80	-53.86	43.24
42.96	-54.18	43.02
43.12	-54.52	42.85
43.28	-54.88	42.74
43.45	-55.26	42.69
43.61	-55.67	42.71
43.77	-56.10	42.80
43.94	-56.56	42.95
44.10	-57.05	43.19
44.27	-57.56	43.51
44.44	-58.10	43.94
44.61	-58.64	44.48
44.77	-59.20	45.16
44.94	-59.76	45.99
45.11	-60.32	46.98
45.28	-60.88	48.16
45.45	-61.41	49.54
45.63	-61.93	51.13
45.80	-62.43	52.95
45.97	-62.89	55.03
46.14	-63.32	57.37
46.32	-63.70	60.00
46.49	-64.03	62.94
46.67	-64.30	66.21
46.84	-64.50	69.82
47.02	-64.63	73.78
47.20	-64.70	78.09
47.38	-64.69	82.68
47.56	-64.63	87.51
47.74	-64.50	92.54
47.92	-64.32	97.72
48.10	-64.09	103.01
48.28	-63.82	108.34
48.46	-63.50	113.68
48.64	-63.14	118.96
48.83	-62.76	124.14
49.01	-62.34	129.16
49.20	-61.91	133.97
49.38	-61.45	138.51
49.57	-60.98	142.72
49.75	-60.51	146.54
49.94	-60.03	149.93
50.13	-59.55	152.86
50.32	-59.08	155.38
50.51	-58.60	157.52
50.70	-58.13	159.29
50.89	-57.67	160.75
51.08	-57.21	161.90
51.28	-56.75	162.79
51.47	-56.31	163.45
51.66	-55.87	163.91
51.86	-55.44	164.21
52.05	-55.03	164.38
52.25	-54.62	164.46
52.45	-54.23	164.48
52.65	-53.86	164.49
52.85	-53.50	164.51
53.04	-53.16	164.57
53.24	-52.84	164.65
53.45	-52.52	164.76
53.65	-52.23	164.89
53.85	-51.94	165.03
54.05	-51.66	165.18
54.26	-51.40	165.32
54.46	-51.14	165.47
54.67	-50.89	165.59
54.87	-50.64	165.70
55.08	-50.40	165.79
55.29	-50.16	165.84
55.50	-49.92	165.85
55.71	-49.68	165.82
55.92	-49.44	165.73
56.13	-49.20	165.60
56.34	-48.96	165.43
56.55	-48.72	165.22
56.77	-48.47	164.97
56.98	-48.23	164.69
57.19	-47.98	164.38
57.41	-47.74	164.06
57.63	-47.49	163.71
57.84	-47.24	163.36
58.06	-47.00	162.99
58.28	-46.76	162.63
58.50	-46.51	162.27
58.72	-46.27	161.91
58.94	-46.03	161.57
59.17	-45.79	161.23
59.39	-45.56	160.90
59.61	-45.32	160.57
59.84	-45.09	160.25
60.06	-44.85	159.94
60.29	-44.62	159.62
60.52	-44.39	159.30
60.75	-44.16	158.99
60.98	-43.94	158.67
61.21	-43.71	158.34
61.44	-43.49	158.01
61.67	-43.27	157.67
61.90	-43.05	157.32
62.14	-42.83	156.96
62.37	-42.61	156.59
62.61	-42.39	156.20
62.84	-42.18	155.80
63.08	-41.96	155.39
63.32	-41.74	154.95
63.56	-41.53	154.50
63.80	-41.31	154.02
64.04	-41.10	153.52
64.28	-40.88	153.00
64.52	-40.67	152.45
64.76	-40.45	151.88
65.01	-40.23	151.28
65.25	-40.02	150.65
65.50	-39.80	150.00
65.75	-39.58	149.32
66.00	-39.36	148.62
66.24	-39.13	147.90
66.49	-38.91	147.15
66.75	-38.68	146.38
67.00	-38.46	145.59
67.25	-38.23	144.77
67.50	-38.00	143.94
67.76	-37.77	143.09
68.01	-37.54	142.21
68.27	-37.30	141.31
68.53	-37.07	140.39
68.79	-36.83	139.44
69.05	-36.60	138.46
69.31	-36.36	137.45
69.57	-36.13	136.42
69.83	-35.89	135.35
70.09	-35.66	134.24
70.36	-35.43	133.10
70.62	-35.19	131.93
70.89	-34.96	130.71
71.16	-34.73	129.45
71.43	-34.51	128.15
71.70	-34.28	126.80
71.97	-34.06	125.40
72.24	-33.85	123.94
72.51	-33.63	122.44
72.79	-33.42	120.87
73.06	-33.22	119.25
73.34	-33.01	117.56
73.61	-32.82	115.80
73.89	-32.63	113.99
74.17	-32.45	112.12
74.45	-32.27	110.19
74.73	-32.10	108.22
75.01	-31.94	106.20
75.29	-31.80	104.13
75.58	-31.66	102.03
75.86	-31.53	99.89
76.15	-31.41	97.72
76.44	-31.31	95.52
76.73	-31.21	93.30
77.02	-31.13	91.06
77.31	-31.07	88.82
77.60	-31.01	86.57
77.89	-30.97	84.32
78.18	-30.95	82.08
78.48	-30.93	79.85
78.78	-30.93	77.65
79.07	-30.94	75.48
79.37	-30.97	73.34
79.67	-31.01	71.23
79.97	-31.06	69.17
80.27	-31.12	67.15
80.58	-31.19	65.17
80.88	-31.26	63.23
81.19	-31.35	61.34
81.49	-31.45	59.51
81.80	-31.54	57.72
82.11	-31.65	55.98
82.42	-31.76	54.31
82.73	-31.87	52.68
83.04	-31.98	51.11
83.35	-32.10	49.60
83.67	-32.22	48.14
83.99	-32.34	46.74
84.30	-32.46	45.39
84.62	-32.59	44.09
84.94	-32.71	42.85
85.26	-32.83	41.67
85.58	-32.96	40.53
85.90	-33.08	39.45
86.23	-33.20	38.41
86.55	-33.32	37.41
86.88	-33.45	36.45
87.21	-33.57	35.52
87.54	-33.69	34.63
87.87	-33.81	33.76
88.20	-33.94	32.91
88.53	-34.06	32.09
88.87	-34.18	31.30
89.20	-34.30	30.52
89.54	-34.42	29.77
89.88	-34.53	29.03
90.22	-34.65	28.32
90.56	-34.76	27.63
90.90	-34.86	26.97
91.24	-34.97	26.32
91.59	-35.07	25.69
91.93	-35.16	25.08
92.28	-35.26	24.50
92.63	-35.35	23.94
92.98	-35.44	23.41
93.33	-35.53	22.90
93.68	-35.62	22.42
94.03	-35.71	21.96
94.39	-35.81	21.53
94.74	-35.90	21.12
95.10	-35.99	20.72
95.46	-36.08	20.34
95.82	-36.17	19.96
96.18	-36.27	19.58
96.54	-36.35	19.20
96.91	-36.44	18.82
97.27	-36.53	18.42
97.64	-36.61	18.02
98.01	-36.70	17.62
98.38	-36.78	17.22
98.75	-36.85	16.83
99.12	-36.93	16.45
99.50	-37.00	16.08
99.87	-37.07	15.74
100.25	-37.14	15.41
100.63	-37.20	15.10
101.01	-37.27	14.81
101.39	-37.33	14.53
101.77	-37.40	14.26
102.16	-37.46	14.00
102.54	-37.53	13.75
102.93	-37.60	13.51
103.32	-37.67	13.27
103.71	-37.74	13.03
104.10	-37.81	12.79
104.49	-37.88	12.55
104.88	-37.95	12.30
105.28	-38.01	12.04
105.68	-38.08	11.77
106.08	-38.14	11.49
106.48	-38.19	11.20
106.88	-38.25	10.92
107.28	-38.30	10.63
107.69	-38.35	10.36
108.09	-38.40	10.11
108.50	-38.45	9.87
108.91	-38.50	9.67
109.32	-38.55	9.48
109.73	-38.59	9.31
110.15	-38.64	9.15
110.56	-38.69	9.00
110.98	-38.74	8.84
111.40	-38.79	8.69
111.82	-38.85	8.53
112.24	-38.90	8.36
112.67	-38.96	8.18
113.09	-39.01	7.99
113.52	-39.07	7.80
113.95	-39.12	7.61
114.38	-39.17	7.40
114.81	-39.21	7.20
115.24	-39.25	6.99
115.68	-39.29	6.80
116.11	-39.33	6.61
116.55	-39.36	6.44
116.99	-39.40	6.30
117.43	-39.44	6.18
117.87	-39.47	6.09
118.32	-39.52	6.01
118.77	-39.56	5.94
119.21	-39.60	5.86
119.66	-39.64	5.76
120.12	-39.69	5.64
120.57	-39.74	5.48
121.02	-39.78	5.29
121.48	-39.83	5.09
121.94	-39.87	4.88
122.40	-39.92	4.68
122.86	-39.95	4.50
123.32	-39.99	4.36
123.79	-40.01	4.25
124.26	-40.04	4.18
124.73	-40.06	4.12
125.20	-40.09	4.08
125.67	-40.12	4.04
126.14	-40.16	4.00
126.62	-40.20	3.95
127.10	-40.24	3.89
127.58	-40.29	3.82
128.06	-40.33	3.72
128.54	-40.38	3.60
129.03	-40.42	3.46
129.51	-40.45	3.29
130.00	-40.48	3.11
130.49	-40.50	2.92
130.98	-40.52	2.75
131.48	-40.55	2.61
131.98	-40.57	2.50
132.47	-40.59	2.44
132.97	-40.62	2.41
133.48	-40.65	2.39
133.98	-40.68	2.36
134.48	-40.71	2.30
134.99	-40.75	2.19
135.50	-40.78	2.03
136.01	-40.82	1.84
136.53	-40.85	1.64
137.04	-40.88	1.44
137.56	-40.90	1.27
138.08	-40.92	1.15
138.60	-40.93	1.07
139.12	-40.94	1.03
139.65	-40.95	1.01
140.17	-40.96	1.00
140.70	-40.98	0.99
141.23	-41.01	0.96
141.77	-41.04	0.92
142.30	-41.08	0.85
142.84	-41.11	0.77
143.38	-41.15	0.65
143.92	-41.17	0.52
144.46	-41.19	0.37
145.01	-41.20	0.21
145.55	-41.21	0.07
146.10	-41.22	-0.03
146.65	-41.23	-0.09
147.21	-41.25	-0.10
147.76	-41.27	-0.09
148.32	-41.30	-0.07
148.88	-41.33	-0.08
149.44	-41.36	-0.14
150.01	-41.39	-0.27
150.57	-41.41	-0.44
151.14	-41.44	-0.64
151.71	-41.46	-0.82
152.28	-41.48	-0.97
152.86	-41.49	-1.05
153.43	-41.49	-1.07
154.01	-41.49	-1.07
154.59	-41.49	-1.06
155.18	-41.51	-1.06
155.76	-41.53	-1.10
156.35	-41.56	-1.18
156.94	-41.59	-1.28
157.53	-41.62	-1.40
158.13	-41.65	-1.53
158.72	-41.66	-1.66
159.32	-41.67	-1.78
159.93	-41.67	-1.88
160.53	-41.67	-1.96
161.13	-41.68	-2.01
161.74	-41.70	-2.02
162.35	-41.72	-2.02
162.97	-41.75	-2.03
163.58	-41.77	-2.06
164.20	-41.80	-2.14
164.82	-41.81	-2.27
165.44	-41.83	-2.44
166.06	-41.84	-2.61
166.69	-41.84	-2.74
167.32	-41.85	-2.81
167.95	-41.85	-2.82
168.58	-41.86	-2.80
169.22	-41.87	-2.78
169.86	-41.88	-2.80
170.50	-41.90	-2.89
171.14	-41.92	-3.02
171.79	-41.94	-3.18
172.44	-41.96	-3.33
173.09	-41.97	-3.43
173.74	-41.97	-3.47
174.40	-41.96	-3.48
175.06	-41.96	-3.48
175.72	-41.97	-3.49
176.38	-41.99	-3.54
177.04	-42.03	-3.61
177.71	-42.06	-3.72
178.38	-42.09	-3.83
179.06	-42.11	-3.96
179.73	-42.11	-4.08
180.41	-42.11	-4.18
181.09	-42.10	-4.27
181.77	-42.11	-4.33
182.46	-42.13	-4.36
183.15	-42.15	-4.38
183.84	-42.18	-4.43
184.53	-42.20	-4.53
185.23	-42.22	-4.70
185.93	-42.23	-4.91
186.63	-42.23	-5.11
187.33	-42.23	-5.25
188.04	-42.24	-5.29
188.75	-42.25	-5.25
189.46	-42.26	-5.21
190.18	-42.28	-5.21
190.90	-42.30	-5.32
191.62	-42.32	-5.53
192.34	-42.33	-5.77
193.07	-42.34	-5.97
193.79	-42.35	-6.05
194.53	-42.35	-6.04
195.26	-42.36	-5.99
196.00	-42.36	-5.96
196.74	-42.38	-6.04
197.48	-42.40	-6.20
198.22	-42.42	-6.40
198.97	-42.44	-6.59
199.72	-42.45	-6.71
200.48	-42.45	-6.77
201.23	-42.44	-6.78
201.99	-42.45	-6.80
202.75	-42.47	-6.85
203.52	-42.50	-6.93
204.29	-42.52	-7.03
205.06	-42.54	-7.13
205.83	-42.54	-7.21
206.61	-42.53	-7.28
207.39	-42.52	-7.32
208.17	-42.52	-7.33
208.96	-42.54	-7.31
209.74	-42.57	-7.30
210.54	-42.59	-7.34
211.33	-42.61	-7.46
212.13	-42.61	-7.66
212.93	-42.61	-7.86
213.73	-42.60	-7.99
214.54	-42.61	-8.01
215.35	-42.62	-7.94
216.16	-42.64	-7.87
216.98	-42.65	-7.88
217.80	-42.66	-8.00
218.62	-42.67	-8.17
219.44	-42.67	-8.29
220.27	-42.67	-8.29
221.10	-42.68	-8.19
221.94	-42.69	-8.07
222.77	-42.70	-8.05
223.61	-42.71	-8.17
224.46	-42.73	-8.35
225.30	-42.74	-8.50
226.15	-42.74	-8.51
227.01	-42.75	-8.42
227.86	-42.75	-8.33
228.72	-42.76	-8.33
229.59	-42.78	-8.48
230.45	-42.80	-8.69
231.32	-42.81	-8.86
232.20	-42.81	-8.91
233.07	-42.80	-8.88
233.95	-42.79	-8.85
234.84	-42.81	-8.91
235.72	-42.83	-9.06
236.61	-42.85	-9.23
237.50	-42.86	-9.35
238.40	-42.84	-9.39
239.30	-42.82	-9.38
240.20	-42.81	-9.38
241.11	-42.83	-9.45
242.02	-42.85	-9.56
242.93	-42.88	-9.67
243.85	-42.87	-9.77
244.77	-42.85	-9.84
245.69	-42.82	-9.91
246.62	-42.82	-9.97
247.55	-42.84	-10.04
248.48	-42.86	-10.12
249.42	-42.87	-10.21
250.36	-42.86	-10.30
251.31	-42.84	-10.37
252.26	-42.84	-10.38
253.21	-42.86	-10.33
254.16	-42.88	-10.30
255.12	-42.89	-10.37
256.09	-42.88	-10.56
257.05	-42.87	-10.78
258.02	-42.88	-10.93
259.00	-42.90	-10.96
259.97	-42.93	-10.95
260.95	-42.94	-11.02
261.94	-42.93	-11.21
262.93	-42.90	-11.44
263.92	-42.90	-11.58
264.92	-42.92	-11.59
265.92	-42.95	-11.57
266.92	-42.96	-11.63
267.93	-42.94	-11.79
268.94	-42.92	-11.97
269.95	-42.91	-12.05
270.97	-42.92	-12.03
271.99	-42.93	-11.99
273.02	-42.94	-12.07
274.05	-42.93	-12.23
275.08	-42.92	-12.40
276.12	-42.93	-12.45
277.16	-42.95	-12.44
278.21	-42.96	-12.47
279.26	-42.96	-12.65
280.31	-42.95	-12.89
281.37	-42.95	-13.04
282.43	-42.96	-13.02
283.50	-42.98	-12.98
284.57	-42.99	-13.12
285.64	-42.99	-13.46
286.72	-42.98	-13.77
287.80	-42.99	-13.83
288.89	-43.01	-13.68
289.98	-43.02	-13.58
291.07	-43.02	-13.71
292.17	-43.02	-13.93
293.27	-43.01	-14.01
294.38	-43.02	-13.89
295.49	-43.03	-13.78
296.61	-43.03	-13.91
297.73	-43.03	-14.21
298.85	-43.03	-14.43
299.98	-43.03	-14.37
301.11	-43.03	-14.23
302.25	-43.03	-14.25
303.39	-43.01	-14.49
304.53	-43.00	-14.75
305.68	-42.99	-14.83
306.83	-42.99	-14.84
307.99	-42.99	-14.97
309.15	-42.98	-15.30
310.32	-42.97	-15.63
311.49	-42.97	-15.80
312.67	-42.98	-15.88
313.85	-42.98	-16.06
315.03	-42.96	-16.41
316.22	-42.94	-16.74
317.41	-42.95	-16.89
318.61	-42.96	-17.00
319.81	-42.98	-17.28
321.02	-43.00	-17.77
322.23	-43.04	-18.19
323.45	-43.11	-18.34
324.67	-43.20	-18.31
325.89	-43.27	-18.29
327.12	-43.30	-18.29
328.36	-43.33	-18.19
329.60	-43.35	-17.95
330.84	-43.36	-17.72
332.09	-43.34	-17.67
333.34	-43.31	-17.74
334.60	-43.31	-17.76
335.86	-43.32	-17.70
337.13	-43.32	-17.70
338.40	-43.28	-17.83
339.68	-43.26	-17.98
340.96	-43.28	-18.03
342.25	-43.31	-18.04
343.54	-43.32	-18.13
344.83	-43.29	-18.27
346.14	-43.29	-18.37
347.44	-43.32	-18.39
348.75	-43.35	-18.43
350.07	-43.33	-18.55
351.39	-43.32	-18.73
352.72	-43.33	-18.94
354.05	-43.35	-19.10
355.38	-43.33	-19.18
356.72	-43.30	-19.23
358.07	-43.30	-19.40
359.42	-43.33	-19.67
360.78	-43.35	-19.77
362.14	-43.32	-19.68
363.51	-43.31	-19.72
364.88	-43.34	-20.08
366.25	-43.38	-20.42
367.64	-43.38	-20.49
369.02	-43.38	-20.55
370.42	-43.40	-20.85
371.81	-43.45	-21.13
373.22	-43.47	-21.03
374.63	-43.48	-20.79
376.04	-43.47	-20.89
377.46	-43.47	-21.21
378.88	-43.49	-21.35
380.31	-43.53	-21.36
381.75	-43.56	-21.54
383.19	-43.59	-21.80
384.63	-43.65	-21.79
386.09	-43.73	-21.51
387.54	-43.75	-21.32
389.00	-43.72	-21.25
390.47	-43.72	-21.10
391.95	-43.74	-20.87
393.43	-43.73	-20.74
394.91	-43.70	-20.74
396.40	-43.70	-20.79
397.90	-43.72	-20.82
399.40	-43.69	-20.84
400.90	-43.64	-20.85
402.42	-43.64	-20.90
403.94	-43.67	-20.96
405.46	-43.66	-20.95
406.99	-43.63	-20.96
408.53	-43.62	-21.12
410.07	-43.63	-21.26
411.61	-43.62	-21.20
413.17	-43.61	-21.24
414.73	-43.60	-21.62
416.29	-43.60	-21.87
417.86	-43.62	-21.71
419.44	-43.61	-21.62
421.02	-43.57	-21.84
422.61	-43.56	-21.98
424.21	-43.57	-21.97
425.81	-43.55	-22.13
427.41	-43.52	-22.44
429.03	-43.54	-22.62
430.65	-43.57	-22.75
