Freq[Hz]	[dBV]	Phase[Deg]
10.00	-59.47	48.75
10.04	-59.57	49.50
10.08	-59.67	50.23
10.11	-59.77	50.94
10.15	-59.87	51.63
10.19	-59.98	52.29
10.23	-60.08	52.94
10.27	-60.18	53.56
10.31	-60.28	54.17
10.34	-60.38	54.75
10.38	-60.48	55.31
10.42	-60.58	55.86
10.46	-60.68	56.38
10.50	-60.78	56.87
10.54	-60.88	57.35
10.58	-60.97	57.81
10.62	-61.07	58.24
10.66	-61.17	58.65
10.70	-61.26	59.04
10.74	-61.35	59.41
10.78	-61.44	59.76
10.82	-61.53	60.08
10.86	-61.62	60.39
10.90	-61.71	60.67
10.95	-61.80	60.92
10.99	-61.88	61.16
11.03	-61.96	61.37
11.07	-62.04	61.56
11.11	-62.12	61.73
11.15	-62.20	61.87
11.20	-62.27	61.99
11.24	-62.34	62.09
11.28	-62.41	62.17
11.32	-62.48	62.22
11.37	-62.55	62.25
11.41	-62.61	62.26
11.45	-62.67	62.24
11.50	-62.72	62.20
11.54	-62.78	62.14
11.58	-62.83	62.05
11.63	-62.87	61.94
11.67	-62.92	61.81
11.71	-62.95	61.65
11.76	-62.99	61.47
11.80	-63.02	61.26
11.85	-63.05	61.04
11.89	-63.08	60.79
11.94	-63.10	60.51
11.98	-63.12	60.22
12.03	-63.13	59.90
12.07	-63.14	59.56
12.12	-63.15	59.20
12.16	-63.15	58.82
12.21	-63.15	58.41
12.26	-63.15	57.99
12.30	-63.14	57.54
12.35	-63.13	57.08
12.39	-63.12	56.59
12.44	-63.11	56.09
12.49	-63.09	55.56
12.54	-63.07	55.02
12.58	-63.04	54.46
12.63	-63.01	53.88
12.68	-62.98	53.28
12.73	-62.95	52.67
12.77	-62.91	52.03
12.82	-62.87	51.39
12.87	-62.83	50.72
12.92	-62.78	50.04
12.97	-62.74	49.35
13.02	-62.69	48.64
13.07	-62.64	47.91
13.12	-62.58	47.18
13.16	-62.52	46.42
13.21	-62.46	45.66
13.26	-62.40	44.89
13.31	-62.34	44.10
13.36	-62.27	43.30
13.41	-62.21	42.49
13.47	-62.14	41.67
13.52	-62.07	40.85
13.57	-61.99	40.01
13.62	-61.92	39.17
13.67	-61.84	38.32
13.72	-61.77	37.46
13.77	-61.69	36.60
13.83	-61.61	35.73
13.88	-61.53	34.85
13.93	-61.45	33.98
13.98	-61.36	33.10
14.04	-61.28	32.22
14.09	-61.20	31.33
14.14	-61.11	30.45
14.19	-61.03	29.57
14.25	-60.94	28.68
14.30	-60.85	27.80
14.36	-60.77	26.93
14.41	-60.68	26.05
14.46	-60.60	25.18
14.52	-60.51	24.32
14.57	-60.43	23.46
14.63	-60.34	22.61
14.68	-60.26	21.77
14.74	-60.18	20.94
14.80	-60.09	20.12
14.85	-60.01	19.31
14.91	-59.93	18.50
14.96	-59.85	17.71
15.02	-59.77	16.92
15.08	-59.70	16.15
15.13	-59.62	15.38
15.19	-59.54	14.62
15.25	-59.46	13.88
15.31	-59.39	13.14
15.36	-59.31	12.41
15.42	-59.24	11.69
15.48	-59.17	10.98
15.54	-59.09	10.27
15.60	-59.02	9.58
15.66	-58.95	8.90
15.71	-58.87	8.23
15.77	-58.80	7.56
15.83	-58.73	6.91
15.89	-58.66	6.27
15.95	-58.59	5.63
16.01	-58.52	5.01
16.07	-58.45	4.39
16.13	-58.38	3.78
16.19	-58.32	3.19
16.26	-58.25	2.60
16.32	-58.18	2.02
16.38	-58.11	1.46
16.44	-58.05	0.90
16.50	-57.98	0.35
16.56	-57.91	-0.19
16.63	-57.85	-0.72
16.69	-57.78	-1.24
16.75	-57.71	-1.75
16.82	-57.65	-2.25
16.88	-57.58	-2.74
16.94	-57.51	-3.22
17.01	-57.45	-3.69
17.07	-57.38	-4.16
17.14	-57.31	-4.61
17.20	-57.25	-5.05
17.27	-57.18	-5.49
17.33	-57.11	-5.91
17.40	-57.05	-6.33
17.46	-56.98	-6.73
17.53	-56.91	-7.13
17.59	-56.84	-7.52
17.66	-56.77	-7.90
17.73	-56.71	-8.27
17.79	-56.64	-8.63
17.86	-56.57	-8.98
17.93	-56.50	-9.32
18.00	-56.43	-9.66
18.06	-56.35	-9.98
18.13	-56.28	-10.30
18.20	-56.21	-10.61
18.27	-56.14	-10.92
18.34	-56.06	-11.22
18.41	-55.99	-11.50
18.48	-55.92	-11.79
18.55	-55.84	-12.06
18.62	-55.76	-12.33
18.69	-55.69	-12.60
18.76	-55.61	-12.85
18.83	-55.53	-13.11
18.90	-55.45	-13.35
18.97	-55.37	-13.60
19.04	-55.29	-13.83
19.11	-55.21	-14.07
19.19	-55.12	-14.29
19.26	-55.04	-14.52
19.33	-54.95	-14.74
19.40	-54.86	-14.96
19.48	-54.78	-15.17
19.55	-54.69	-15.38
19.62	-54.60	-15.59
19.70	-54.50	-15.80
19.77	-54.41	-16.01
19.85	-54.32	-16.21
19.92	-54.22	-16.42
20.00	-54.12	-16.62
20.07	-54.02	-16.83
20.15	-53.92	-17.03
20.22	-53.82	-17.24
20.30	-53.72	-17.44
20.38	-53.61	-17.65
20.45	-53.51	-17.86
20.53	-53.40	-18.08
20.61	-53.29	-18.29
20.69	-53.17	-18.51
20.77	-53.06	-18.73
20.84	-52.94	-18.96
20.92	-52.83	-19.18
21.00	-52.71	-19.41
21.08	-52.59	-19.64
21.16	-52.47	-19.88
21.24	-52.34	-20.11
21.32	-52.22	-20.35
21.40	-52.09	-20.58
21.48	-51.97	-20.82
21.56	-51.84	-21.06
21.64	-51.71	-21.30
21.73	-51.58	-21.54
21.81	-51.45	-21.79
21.89	-51.32	-22.03
21.97	-51.19	-22.27
22.06	-51.06	-22.52
22.14	-50.92	-22.76
22.22	-50.79	-23.00
22.31	-50.66	-23.24
22.39	-50.52	-23.48
22.47	-50.39	-23.73
22.56	-50.25	-23.96
22.64	-50.12	-24.20
22.73	-49.99	-24.44
22.82	-49.85	-24.67
22.90	-49.72	-24.91
22.99	-49.59	-25.14
23.07	-49.46	-25.37
23.16	-49.33	-25.59
23.25	-49.20	-25.81
23.34	-49.07	-26.03
23.43	-48.94	-26.25
23.51	-48.81	-26.46
23.60	-48.69	-26.67
23.69	-48.56	-26.88
23.78	-48.44	-27.08
23.87	-48.32	-27.28
23.96	-48.20	-27.47
24.05	-48.07	-27.67
24.14	-47.96	-27.86
24.23	-47.84	-28.05
24.32	-47.72	-28.25
24.42	-47.60	-28.44
24.51	-47.48	-28.63
24.60	-47.37	-28.82
24.69	-47.25	-29.01
24.79	-47.14	-29.20
24.88	-47.02	-29.39
24.97	-46.90	-29.58
25.07	-46.79	-29.78
25.16	-46.67	-29.98
25.26	-46.56	-30.18
25.35	-46.44	-30.38
25.45	-46.33	-30.59
25.54	-46.21	-30.80
25.64	-46.10	-31.02
25.74	-45.98	-31.24
25.84	-45.86	-31.47
25.93	-45.75	-31.70
26.03	-45.63	-31.94
26.13	-45.51	-32.18
26.23	-45.39	-32.44
26.33	-45.27	-32.70
26.43	-45.15	-32.97
26.53	-45.02	-33.25
26.63	-44.90	-33.54
26.73	-44.77	-33.84
26.83	-44.65	-34.15
26.93	-44.52	-34.46
27.03	-44.39	-34.79
27.13	-44.26	-35.12
27.23	-44.13	-35.46
27.34	-44.00	-35.82
27.44	-43.86	-36.18
27.54	-43.73	-36.55
27.65	-43.59	-36.93
27.75	-43.46	-37.32
27.86	-43.32	-37.72
27.96	-43.18	-38.13
28.07	-43.04	-38.55
28.17	-42.90	-38.98
28.28	-42.76	-39.42
28.39	-42.62	-39.87
28.49	-42.48	-40.32
28.60	-42.34	-40.79
28.71	-42.19	-41.27
28.82	-42.05	-41.75
28.93	-41.90	-42.25
29.03	-41.76	-42.76
29.14	-41.61	-43.27
29.25	-41.46	-43.80
29.36	-41.32	-44.34
29.48	-41.17	-44.88
29.59	-41.02	-45.44
29.70	-40.87	-46.01
29.81	-40.72	-46.59
29.92	-40.57	-47.18
30.04	-40.42	-47.79
30.15	-40.27	-48.41
30.26	-40.12	-49.04
30.38	-39.97	-49.68
30.49	-39.82	-50.34
30.61	-39.66	-51.01
30.72	-39.51	-51.70
30.84	-39.36	-52.41
30.95	-39.20	-53.13
31.07	-39.05	-53.86
31.19	-38.90	-54.62
31.31	-38.74	-55.39
31.42	-38.59	-56.18
31.54	-38.43	-56.99
31.66	-38.28	-57.82
31.78	-38.13	-58.67
31.90	-37.97	-59.54
32.02	-37.82	-60.43
32.14	-37.66	-61.34
32.26	-37.51	-62.28
32.39	-37.35	-63.24
32.51	-37.19	-64.22
32.63	-37.04	-65.22
32.75	-36.89	-66.25
32.88	-36.73	-67.30
33.00	-36.58	-68.37
33.13	-36.43	-69.46
33.25	-36.28	-70.58
33.38	-36.13	-71.71
33.50	-35.98	-72.87
33.63	-35.84	-74.05
33.76	-35.70	-75.25
33.88	-35.56	-76.48
34.01	-35.42	-77.72
34.14	-35.29	-78.99
34.27	-35.15	-80.27
34.40	-35.03	-81.58
34.53	-34.90	-82.90
34.66	-34.78	-84.25
34.79	-34.67	-85.62
34.92	-34.55	-87.00
35.05	-34.45	-88.41
35.18	-34.34	-89.83
35.32	-34.25	-91.28
35.45	-34.16	-92.74
35.58	-34.07	-94.21
35.72	-33.99	-95.70
35.85	-33.91	-97.20
35.99	-33.84	-98.71
36.12	-33.77	-100.23
36.26	-33.71	-101.76
36.40	-33.66	-103.29
36.53	-33.61	-104.82
36.67	-33.56	-106.35
36.81	-33.52	-107.89
36.95	-33.49	-109.41
37.09	-33.46	-110.94
37.23	-33.43	-112.45
37.37	-33.41	-113.96
37.51	-33.40	-115.45
37.65	-33.39	-116.93
37.79	-33.38	-118.39
37.94	-33.38	-119.84
38.08	-33.39	-121.26
38.22	-33.40	-122.65
38.37	-33.41	-124.02
38.51	-33.43	-125.37
38.66	-33.46	-126.70
38.80	-33.48	-128.00
38.95	-33.52	-129.27
39.10	-33.55	-130.52
39.24	-33.59	-131.75
39.39	-33.63	-132.95
39.54	-33.68	-134.13
39.69	-33.72	-135.29
39.84	-33.77	-136.42
39.99	-33.82	-137.53
40.14	-33.88	-138.62
40.29	-33.93	-139.68
40.45	-33.98	-140.72
40.60	-34.04	-141.74
40.75	-34.10	-142.73
40.90	-34.15	-143.70
41.06	-34.21	-144.65
41.21	-34.26	-145.57
41.37	-34.32	-146.48
41.53	-34.37	-147.36
41.68	-34.43	-148.22
41.84	-34.48	-149.07
42.00	-34.53	-149.89
42.16	-34.58	-150.69
42.32	-34.63	-151.47
42.47	-34.68	-152.24
42.63	-34.73	-152.98
42.80	-34.78	-153.71
42.96	-34.82	-154.42
43.12	-34.87	-155.11
43.28	-34.92	-155.79
43.45	-34.96	-156.45
43.61	-35.00	-157.10
43.77	-35.04	-157.73
43.94	-35.09	-158.35
44.10	-35.12	-158.96
44.27	-35.16	-159.55
44.44	-35.20	-160.13
44.61	-35.24	-160.70
44.77	-35.27	-161.26
44.94	-35.31	-161.80
45.11	-35.34	-162.33
45.28	-35.37	-162.86
45.45	-35.40	-163.37
45.63	-35.43	-163.87
45.80	-35.46	-164.36
45.97	-35.48	-164.85
46.14	-35.51	-165.32
46.32	-35.53	-165.78
46.49	-35.56	-166.24
46.67	-35.58	-166.69
46.84	-35.60	-167.13
47.02	-35.62	-167.56
47.20	-35.64	-167.99
47.38	-35.66	-168.41
47.56	-35.68	-168.83
47.74	-35.69	-169.24
47.92	-35.71	-169.64
48.10	-35.72	-170.04
48.28	-35.74	-170.43
48.46	-35.75	-170.82
48.64	-35.76	-171.21
48.83	-35.77	-171.59
49.01	-35.78	-171.97
49.20	-35.79	-172.35
49.38	-35.79	-172.73
49.57	-35.80	-173.10
49.75	-35.80	-173.48
49.94	-35.81	-173.85
50.13	-35.81	-174.22
50.32	-35.81	-174.59
50.51	-35.81	-174.97
50.70	-35.81	-175.34
50.89	-35.81	-175.71
51.08	-35.80	-176.08
51.28	-35.80	-176.45
51.47	-35.79	-176.82
51.66	-35.78	-177.18
51.86	-35.78	-177.55
52.05	-35.76	-177.92
52.25	-35.75	-178.28
52.45	-35.74	-178.65
52.65	-35.72	-179.02
52.85	-35.71	-179.38
53.04	-35.69	-179.74
53.24	-35.67	179.89
53.45	-35.65	179.53
53.65	-35.62	179.17
53.85	-35.60	178.81
54.05	-35.57	178.45
54.26	-35.54	178.09
54.46	-35.51	177.73
54.67	-35.48	177.38
54.87	-35.45	177.02
55.08	-35.42	176.66
55.29	-35.39	176.31
55.50	-35.35	175.96
55.71	-35.31	175.60
55.92	-35.27	175.25
56.13	-35.24	174.90
56.34	-35.20	174.54
56.55	-35.15	174.19
56.77	-35.11	173.83
56.98	-35.07	173.48
57.19	-35.02	173.12
57.41	-34.98	172.76
57.63	-34.93	172.40
57.84	-34.88	172.03
58.06	-34.83	171.66
58.28	-34.78	171.28
58.50	-34.73	170.90
58.72	-34.68	170.52
58.94	-34.63	170.13
59.17	-34.57	169.73
59.39	-34.52	169.32
59.61	-34.46	168.91
59.84	-34.40	168.49
60.06	-34.35	168.07
60.29	-34.29	167.63
60.52	-34.22	167.19
60.75	-34.16	166.73
60.98	-34.09	166.27
61.21	-34.03	165.80
61.44	-33.96	165.32
61.67	-33.89	164.83
61.90	-33.81	164.32
62.14	-33.74	163.81
62.37	-33.66	163.28
62.61	-33.58	162.75
62.84	-33.50	162.20
63.08	-33.42	161.64
63.32	-33.34	161.08
63.56	-33.25	160.50
63.80	-33.16	159.91
64.04	-33.07	159.30
64.28	-32.98	158.69
64.52	-32.88	158.07
64.76	-32.79	157.43
65.01	-32.69	156.79
65.25	-32.59	156.12
65.50	-32.49	155.45
65.75	-32.38	154.75
66.00	-32.28	154.04
66.24	-32.17	153.31
66.49	-32.06	152.56
66.75	-31.95	151.79
67.00	-31.84	151.00
67.25	-31.72	150.18
67.50	-31.61	149.33
67.76	-31.49	148.46
68.01	-31.37	147.56
68.27	-31.26	146.63
68.53	-31.14	145.66
68.79	-31.01	144.67
69.05	-30.89	143.64
69.31	-30.77	142.57
69.57	-30.65	141.47
69.83	-30.52	140.33
70.09	-30.39	139.15
70.36	-30.27	137.93
70.62	-30.14	136.67
70.89	-30.01	135.37
71.16	-29.88	134.02
71.43	-29.75	132.62
71.70	-29.63	131.18
71.97	-29.50	129.69
72.24	-29.38	128.15
72.51	-29.26	126.56
72.79	-29.14	124.92
73.06	-29.03	123.23
73.34	-28.92	121.49
73.61	-28.81	119.69
73.89	-28.71	117.84
74.17	-28.62	115.94
74.45	-28.53	113.99
74.73	-28.45	111.99
75.01	-28.38	109.95
75.29	-28.32	107.87
75.58	-28.27	105.75
75.86	-28.23	103.58
76.15	-28.21	101.38
76.44	-28.19	99.14
76.73	-28.19	96.88
77.02	-28.20	94.59
77.31	-28.22	92.29
77.60	-28.26	89.98
77.89	-28.31	87.66
78.18	-28.37	85.36
78.48	-28.44	83.06
78.78	-28.53	80.79
79.07	-28.62	78.55
79.37	-28.73	76.34
79.67	-28.85	74.18
79.97	-28.97	72.05
80.27	-29.11	69.97
80.58	-29.26	67.94
80.88	-29.41	65.96
81.19	-29.57	64.03
81.49	-29.74	62.16
81.80	-29.92	60.34
82.11	-30.10	58.58
82.42	-30.28	56.89
82.73	-30.47	55.26
83.04	-30.66	53.68
83.35	-30.85	52.16
83.67	-31.05	50.69
83.99	-31.25	49.28
84.30	-31.45	47.91
84.62	-31.65	46.59
84.94	-31.85	45.31
85.26	-32.05	44.07
85.58	-32.25	42.87
85.90	-32.44	41.72
86.23	-32.64	40.60
86.55	-32.84	39.52
86.88	-33.03	38.47
87.21	-33.23	37.47
87.54	-33.42	36.50
87.87	-33.60	35.57
88.20	-33.79	34.67
88.53	-33.97	33.81
88.87	-34.15	32.98
89.20	-34.33	32.18
89.54	-34.51	31.42
89.88	-34.68	30.68
90.22	-34.85	29.97
90.56	-35.03	29.29
90.90	-35.20	28.63
91.24	-35.37	28.00
91.59	-35.54	27.38
91.93	-35.71	26.79
92.28	-35.88	26.21
92.63	-36.05	25.65
92.98	-36.21	25.10
93.33	-36.37	24.56
93.68	-36.53	24.03
94.03	-36.69	23.50
94.39	-36.85	22.99
94.74	-37.00	22.47
95.10	-37.15	21.97
95.46	-37.30	21.49
95.82	-37.44	21.01
96.18	-37.58	20.55
96.54	-37.73	20.12
96.91	-37.86	19.70
97.27	-38.00	19.30
97.64	-38.14	18.91
98.01	-38.27	18.55
98.38	-38.41	18.19
98.75	-38.54	17.84
99.12	-38.68	17.50
99.50	-38.82	17.16
99.87	-38.95	16.82
100.25	-39.09	16.48
100.63	-39.23	16.13
101.01	-39.37	15.79
101.39	-39.50	15.44
101.77	-39.63	15.09
102.16	-39.76	14.74
102.54	-39.89	14.39
102.93	-40.01	14.04
103.32	-40.13	13.69
103.71	-40.24	13.35
104.10	-40.35	13.02
104.49	-40.46	12.70
104.88	-40.57	12.39
105.28	-40.68	12.10
105.68	-40.79	11.84
106.08	-40.90	11.60
106.48	-41.02	11.37
106.88	-41.13	11.15
107.28	-41.24	10.93
107.69	-41.36	10.71
108.09	-41.47	10.47
108.50	-41.59	10.22
108.91	-41.70	9.94
109.32	-41.81	9.65
109.73	-41.92	9.35
110.15	-42.03	9.04
110.56	-42.13	8.74
110.98	-42.23	8.45
111.40	-42.33	8.17
111.82	-42.42	7.91
112.24	-42.52	7.68
112.67	-42.60	7.46
113.09	-42.69	7.25
113.52	-42.79	7.05
113.95	-42.88	6.86
114.38	-42.98	6.67
114.81	-43.08	6.49
115.24	-43.19	6.30
115.68	-43.29	6.11
116.11	-43.40	5.91
116.55	-43.51	5.70
116.99	-43.61	5.48
117.43	-43.70	5.24
117.87	-43.79	4.98
118.32	-43.87	4.72
118.77	-43.95	4.45
119.21	-44.03	4.20
119.66	-44.10	3.97
120.12	-44.18	3.77
120.57	-44.25	3.60
121.02	-44.33	3.46
121.48	-44.41	3.34
121.94	-44.49	3.22
122.40	-44.57	3.10
122.86	-44.66	2.95
123.32	-44.75	2.78
123.79	-44.85	2.58
124.26	-44.94	2.36
124.73	-45.04	2.11
125.20	-45.13	1.86
125.67	-45.22	1.60
126.14	-45.29	1.35
126.62	-45.36	1.10
127.10	-45.42	0.87
127.58	-45.48	0.66
128.06	-45.54	0.48
128.54	-45.60	0.32
129.03	-45.67	0.20
129.51	-45.74	0.11
130.00	-45.82	0.03
130.49	-45.91	-0.04
130.98	-45.99	-0.14
131.48	-46.07	-0.27
131.98	-46.15	-0.47
132.47	-46.22	-0.73
132.97	-46.29	-1.03
133.48	-46.35	-1.33
133.98	-46.41	-1.63
134.48	-46.47	-1.87
134.99	-46.52	-2.03
135.50	-46.58	-2.11
136.01	-46.63	-2.14
136.53	-46.69	-2.14
137.04	-46.75	-2.14
137.56	-46.82	-2.17
138.08	-46.89	-2.27
138.60	-46.97	-2.42
139.12	-47.05	-2.62
139.65	-47.12	-2.84
140.17	-47.19	-3.07
140.70	-47.24	-3.28
141.23	-47.28	-3.47
141.77	-47.31	-3.62
142.30	-47.34	-3.75
142.84	-47.37	-3.84
143.38	-47.42	-3.90
143.92	-47.48	-3.93
144.46	-47.56	-3.95
145.01	-47.65	-3.97
145.55	-47.74	-4.02
146.10	-47.83	-4.11
146.65	-47.90	-4.28
147.21	-47.96	-4.52
147.76	-48.01	-4.80
148.32	-48.05	-5.08
148.88	-48.09	-5.33
149.44	-48.13	-5.51
150.01	-48.17	-5.58
150.57	-48.22	-5.59
151.14	-48.27	-5.57
151.71	-48.33	-5.57
152.28	-48.39	-5.61
152.86	-48.46	-5.75
153.43	-48.53	-5.96
154.01	-48.60	-6.20
154.59	-48.66	-6.46
155.18	-48.71	-6.68
155.76	-48.75	-6.85
156.35	-48.77	-6.96
156.94	-48.79	-7.03
157.53	-48.82	-7.08
158.13	-48.86	-7.12
158.72	-48.93	-7.17
159.32	-49.00	-7.24
159.93	-49.08	-7.33
160.53	-49.16	-7.45
161.13	-49.23	-7.60
161.74	-49.27	-7.79
162.35	-49.30	-7.99
162.97	-49.32	-8.17
163.58	-49.34	-8.32
164.20	-49.37	-8.39
164.82	-49.42	-8.38
165.44	-49.49	-8.35
166.06	-49.55	-8.34
166.69	-49.62	-8.41
167.32	-49.69	-8.61
167.95	-49.74	-8.94
168.58	-49.79	-9.32
169.22	-49.83	-9.68
169.86	-49.86	-9.94
170.50	-49.89	-10.05
171.14	-49.92	-10.03
171.79	-49.95	-9.97
172.44	-49.99	-9.94
173.09	-50.04	-10.00
173.74	-50.11	-10.19
174.40	-50.17	-10.46
175.06	-50.23	-10.77
175.72	-50.27	-11.06
176.38	-50.28	-11.28
177.04	-50.29	-11.45
177.71	-50.29	-11.58
178.38	-50.30	-11.70
179.06	-50.33	-11.82
179.73	-50.40	-11.96
180.41	-50.47	-12.12
181.09	-50.53	-12.30
181.77	-50.57	-12.52
182.46	-50.58	-12.75
183.15	-50.57	-12.97
183.84	-50.56	-13.15
184.53	-50.57	-13.23
185.23	-50.62	-13.21
185.93	-50.68	-13.14
186.63	-50.76	-13.09
187.33	-50.82	-13.14
188.04	-50.86	-13.36
188.75	-50.88	-13.70
189.46	-50.89	-14.06
190.18	-50.91	-14.31
190.90	-50.94	-14.38
191.62	-50.99	-14.28
192.34	-51.06	-14.15
193.07	-51.13	-14.12
193.79	-51.19	-14.32
194.53	-51.24	-14.73
195.26	-51.29	-15.22
196.00	-51.32	-15.64
196.74	-51.34	-15.85
197.48	-51.36	-15.85
198.22	-51.38	-15.77
198.97	-51.40	-15.72
199.72	-51.44	-15.81
200.48	-51.49	-16.04
201.23	-51.54	-16.32
201.99	-51.57	-16.58
202.75	-51.58	-16.73
203.52	-51.59	-16.78
204.29	-51.59	-16.78
205.06	-51.62	-16.76
205.83	-51.67	-16.77
206.61	-51.75	-16.81
207.39	-51.82	-16.89
208.17	-51.86	-17.02
208.96	-51.87	-17.18
209.74	-51.87	-17.33
210.54	-51.87	-17.44
211.33	-51.90	-17.44
212.13	-51.97	-17.38
212.93	-52.04	-17.34
213.73	-52.11	-17.43
214.54	-52.14	-17.73
215.35	-52.16	-18.14
216.16	-52.16	-18.53
216.98	-52.18	-18.72
217.80	-52.22	-18.66
218.62	-52.26	-18.50
219.44	-52.29	-18.42
220.27	-52.31	-18.57
221.10	-52.31	-18.90
221.94	-52.31	-19.24
222.77	-52.32	-19.39
223.61	-52.34	-19.24
224.46	-52.38	-18.97
225.30	-52.42	-18.77
226.15	-52.45	-18.86
227.01	-52.47	-19.17
227.86	-52.48	-19.49
228.72	-52.49	-19.58
229.59	-52.50	-19.36
230.45	-52.51	-19.03
231.32	-52.54	-18.81
232.20	-52.59	-18.91
233.07	-52.65	-19.23
233.95	-52.69	-19.55
234.84	-52.69	-19.68
235.72	-52.66	-19.58
236.61	-52.63	-19.42
237.50	-52.63	-19.36
238.40	-52.67	-19.49
239.30	-52.73	-19.69
240.20	-52.76	-19.85
241.11	-52.75	-19.86
242.02	-52.70	-19.80
242.93	-52.67	-19.79
243.85	-52.67	-19.93
244.77	-52.72	-20.20
245.69	-52.75	-20.47
246.62	-52.75	-20.62
247.55	-52.70	-20.67
248.48	-52.66	-20.69
249.42	-52.65	-20.76
250.36	-52.68	-20.92
251.31	-52.72	-21.09
252.26	-52.70	-21.22
253.21	-52.63	-21.26
254.16	-52.56	-21.28
255.12	-52.53	-21.31
256.09	-52.58	-21.41
257.05	-52.64	-21.56
258.02	-52.65	-21.78
259.00	-52.59	-22.04
259.97	-52.49	-22.27
260.95	-52.44	-22.40
261.94	-52.47	-22.42
262.93	-52.52	-22.45
263.92	-52.54	-22.67
264.92	-52.52	-23.11
265.92	-52.47	-23.60
266.92	-52.45	-23.95
267.93	-52.47	-24.11
268.94	-52.50	-24.27
269.95	-52.48	-24.65
270.97	-52.43	-25.27
271.99	-52.37	-25.84
273.02	-52.36	-26.10
274.05	-52.39	-26.08
275.08	-52.41	-26.09
276.12	-52.39	-26.44
277.16	-52.34	-27.05
278.21	-52.30	-27.60
279.26	-52.31	-27.87
280.31	-52.35	-27.99
281.37	-52.37	-28.29
282.43	-52.34	-28.91
283.50	-52.29	-29.61
284.57	-52.27	-30.07
285.64	-52.29	-30.22
286.72	-52.31	-30.39
287.80	-52.29	-30.91
288.89	-52.26	-31.73
289.98	-52.25	-32.49
291.07	-52.31	-32.95
292.17	-52.40	-33.20
293.27	-52.48	-33.49
294.38	-52.53	-33.92
295.49	-52.57	-34.32
296.61	-52.62	-34.48
297.73	-52.67	-34.47
298.85	-52.70	-34.51
299.98	-52.68	-34.73
301.11	-52.65	-35.01
302.25	-52.64	-35.14
303.39	-52.64	-35.09
304.53	-52.64	-35.08
305.68	-52.60	-35.29
306.83	-52.54	-35.63
307.99	-52.53	-35.91
309.15	-52.55	-36.06
310.32	-52.56	-36.24
311.49	-52.52	-36.59
312.67	-52.43	-37.07
313.85	-52.36	-37.55
315.03	-52.32	-38.02
316.22	-52.25	-38.64
317.41	-52.13	-39.55
318.61	-52.00	-40.76
319.81	-51.96	-42.19
321.02	-52.02	-43.75
322.23	-52.15	-45.34
323.45	-52.28	-46.80
324.67	-52.46	-47.94
325.89	-52.74	-48.54
327.12	-53.06	-48.60
328.36	-53.28	-48.29
329.60	-53.32	-47.80
330.84	-53.30	-47.40
332.09	-53.36	-47.28
333.34	-53.46	-47.30
334.60	-53.48	-47.15
335.86	-53.43	-46.83
337.13	-53.40	-46.69
338.40	-53.46	-46.93
339.68	-53.52	-47.34
340.96	-53.48	-47.69
342.25	-53.43	-48.02
343.54	-53.49	-48.46
344.83	-53.65	-48.88
346.14	-53.75	-48.96
347.44	-53.75	-48.71
348.75	-53.75	-48.69
350.07	-53.83	-49.20
351.39	-53.92	-49.66
352.72	-53.92	-49.44
354.05	-53.90	-48.99
355.38	-53.94	-49.06
356.72	-54.01	-49.49
358.07	-54.02	-49.56
359.42	-53.95	-49.23
360.78	-53.92	-49.16
362.14	-53.95	-49.58
363.51	-53.98	-49.85
364.88	-53.95	-49.63
366.25	-53.90	-49.49
367.64	-53.89	-49.91
369.02	-53.92	-50.48
370.42	-53.98	-50.70
371.81	-54.03	-50.78
373.22	-54.03	-51.06
374.63	-54.02	-51.35
376.04	-54.03	-51.25
377.46	-54.02	-51.09
378.88	-53.95	-51.50
380.31	-53.86	-52.34
381.75	-53.86	-52.92
383.19	-53.93	-53.33
384.63	-53.97	-54.15
386.09	-54.00	-55.16
387.54	-54.14	-55.47
389.00	-54.34	-55.08
390.47	-54.42	-54.74
391.95	-54.39	-54.71
393.43	-54.42	-54.80
394.91	-54.53	-54.76
396.40	-54.55	-54.29
397.90	-54.49	-53.75
399.40	-54.49	-53.90
400.90	-54.53	-54.35
402.42	-54.55	-54.02
403.94	-54.52	-53.40
405.46	-54.47	-53.73
406.99	-54.45	-54.39
408.53	-54.50	-54.09
410.07	-54.53	-53.50
411.61	-54.46	-53.72
413.17	-54.40	-54.10
414.73	-54.44	-53.82
416.29	-54.45	-53.46
417.86	-54.34	-53.54
419.44	-54.32	-53.71
421.02	-54.42	-53.63
422.61	-54.36	-53.23
424.21	-54.16	-52.80
