Freq[Hz]	[dBV]	Phase[Deg]
10.00	-61.53	-179.65
10.04	-61.53	-179.39
10.08	-61.53	-179.13
10.11	-61.53	-178.87
10.15	-61.53	-178.60
10.19	-61.53	-178.34
10.23	-61.53	-178.07
10.27	-61.53	-177.79
10.31	-61.52	-177.51
10.34	-61.52	-177.22
10.38	-61.51	-176.91
10.42	-61.50	-176.60
10.46	-61.49	-176.27
10.50	-61.48	-175.92
10.54	-61.48	-175.55
10.58	-61.46	-175.17
10.62	-61.45	-174.76
10.66	-61.44	-174.34
10.70	-61.43	-173.88
10.74	-61.42	-173.40
10.78	-61.41	-172.89
10.82	-61.39	-172.34
10.86	-61.38	-171.77
10.90	-61.37	-171.16
10.95	-61.36	-170.51
10.99	-61.34	-169.82
11.03	-61.33	-169.08
11.07	-61.32	-168.31
11.11	-61.31	-167.48
11.15	-61.30	-166.61
11.20	-61.29	-165.68
11.24	-61.28	-164.70
11.28	-61.27	-163.66
11.32	-61.26	-162.57
11.37	-61.25	-161.41
11.41	-61.25	-160.18
11.45	-61.24	-158.89
11.50	-61.24	-157.52
11.54	-61.23	-156.09
11.58	-61.23	-154.57
11.63	-61.23	-152.98
11.67	-61.24	-151.31
11.71	-61.24	-149.55
11.76	-61.25	-147.70
11.80	-61.26	-145.76
11.85	-61.27	-143.74
11.89	-61.28	-141.63
11.94	-61.29	-139.44
11.98	-61.31	-137.18
12.03	-61.33	-134.83
12.07	-61.35	-132.41
12.12	-61.37	-129.92
12.16	-61.40	-127.35
12.21	-61.42	-124.72
12.26	-61.45	-122.02
12.30	-61.48	-119.25
12.35	-61.51	-116.43
12.39	-61.55	-113.55
12.44	-61.58	-110.61
12.49	-61.62	-107.61
12.54	-61.66	-104.57
12.58	-61.70	-101.48
12.63	-61.75	-98.34
12.68	-61.79	-95.17
12.73	-61.84	-91.95
12.77	-61.89	-88.70
12.82	-61.94	-85.42
12.87	-62.00	-82.11
12.92	-62.05	-78.77
12.97	-62.11	-75.41
13.02	-62.17	-72.03
13.07	-62.23	-68.64
13.12	-62.29	-65.24
13.16	-62.36	-61.83
13.21	-62.43	-58.42
13.26	-62.50	-55.00
13.31	-62.57	-51.60
13.36	-62.64	-48.20
13.41	-62.71	-44.81
13.47	-62.79	-41.45
13.52	-62.87	-38.10
13.57	-62.95	-34.78
13.62	-63.03	-31.50
13.67	-63.11	-28.25
13.72	-63.19	-25.04
13.77	-63.28	-21.87
13.83	-63.37	-18.76
13.88	-63.46	-15.70
13.93	-63.55	-12.71
13.98	-63.64	-9.78
14.04	-63.74	-6.93
14.09	-63.83	-4.15
14.14	-63.93	-1.46
14.19	-64.03	1.15
14.25	-64.13	3.66
14.30	-64.23	6.06
14.36	-64.34	8.36
14.41	-64.44	10.54
14.46	-64.55	12.61
14.52	-64.66	14.54
14.57	-64.76	16.35
14.63	-64.88	18.01
14.68	-64.99	19.52
14.74	-65.10	20.88
14.80	-65.21	22.10
14.85	-65.33	23.17
14.91	-65.45	24.10
14.96	-65.56	24.88
15.02	-65.68	25.53
15.08	-65.80	26.04
15.13	-65.92	26.41
15.19	-66.04	26.65
15.25	-66.16	26.76
15.31	-66.28	26.74
15.36	-66.40	26.59
15.42	-66.53	26.32
15.48	-66.65	25.93
15.54	-66.77	25.42
15.60	-66.90	24.80
15.66	-67.02	24.06
15.71	-67.14	23.21
15.77	-67.27	22.26
15.83	-67.39	21.21
15.89	-67.51	20.05
15.95	-67.63	18.80
16.01	-67.75	17.45
16.07	-67.88	16.01
16.13	-68.00	14.49
16.19	-68.12	12.88
16.26	-68.24	11.20
16.32	-68.35	9.44
16.38	-68.47	7.61
16.44	-68.59	5.71
16.50	-68.70	3.75
16.56	-68.81	1.73
16.63	-68.92	-0.35
16.69	-69.03	-2.47
16.75	-69.14	-4.64
16.82	-69.25	-6.85
16.88	-69.35	-9.10
16.94	-69.45	-11.38
17.01	-69.55	-13.68
17.07	-69.64	-16.00
17.14	-69.74	-18.34
17.20	-69.83	-20.69
17.27	-69.92	-23.04
17.33	-70.00	-25.39
17.40	-70.08	-27.74
17.46	-70.16	-30.07
17.53	-70.24	-32.38
17.59	-70.31	-34.67
17.66	-70.38	-36.92
17.73	-70.44	-39.15
17.79	-70.50	-41.36
17.86	-70.55	-43.54
17.93	-70.60	-45.71
18.00	-70.65	-47.85
18.06	-70.70	-49.98
18.13	-70.73	-52.10
18.20	-70.77	-54.21
18.27	-70.80	-56.32
18.34	-70.83	-58.42
18.41	-70.85	-60.52
18.48	-70.87	-62.62
18.55	-70.88	-64.73
18.62	-70.89	-66.84
18.69	-70.90	-68.97
18.76	-70.90	-71.12
18.83	-70.89	-73.28
18.90	-70.88	-75.46
18.97	-70.87	-77.67
19.04	-70.85	-79.91
19.11	-70.83	-82.18
19.19	-70.80	-84.49
19.26	-70.77	-86.83
19.33	-70.74	-89.23
19.40	-70.70	-91.67
19.48	-70.65	-94.16
19.55	-70.60	-96.71
19.62	-70.54	-99.32
19.70	-70.48	-102.00
19.77	-70.42	-104.74
19.85	-70.35	-107.56
19.92	-70.27	-110.46
20.00	-70.19	-113.44
20.07	-70.10	-116.51
20.15	-70.01	-119.68
20.22	-69.91	-122.94
20.30	-69.81	-126.30
20.38	-69.71	-129.78
20.45	-69.59	-133.36
20.53	-69.47	-137.07
20.61	-69.35	-140.90
20.69	-69.22	-144.84
20.77	-69.09	-148.89
20.84	-68.96	-153.04
20.92	-68.82	-157.28
21.00	-68.68	-161.61
21.08	-68.54	-166.02
21.16	-68.40	-170.50
21.24	-68.25	-175.04
21.32	-68.11	-179.63
21.40	-67.97	175.72
21.48	-67.84	171.04
21.56	-67.71	166.34
21.64	-67.58	161.61
21.73	-67.45	156.86
21.81	-67.33	152.12
21.89	-67.22	147.38
21.97	-67.12	142.67
22.06	-67.02	137.98
22.14	-66.94	133.32
22.22	-66.86	128.72
22.31	-66.80	124.17
22.39	-66.75	119.69
22.47	-66.71	115.29
22.56	-66.68	110.98
22.64	-66.67	106.78
22.73	-66.68	102.69
22.82	-66.71	98.73
22.90	-66.75	94.91
22.99	-66.82	91.24
23.07	-66.90	87.73
23.16	-67.01	84.41
23.25	-67.14	81.27
23.34	-67.30	78.34
23.43	-67.48	75.63
23.51	-67.69	73.14
23.60	-67.92	70.89
23.69	-68.18	68.87
23.78	-68.47	67.07
23.87	-68.78	65.48
23.96	-69.11	64.10
24.05	-69.46	62.93
24.14	-69.83	61.96
24.23	-70.22	61.18
24.32	-70.63	60.59
24.42	-71.05	60.18
24.51	-71.49	59.94
24.60	-71.94	59.88
24.69	-72.40	59.97
24.79	-72.87	60.22
24.88	-73.35	60.62
24.97	-73.84	61.16
25.07	-74.34	61.83
25.16	-74.84	62.63
25.26	-75.34	63.55
25.35	-75.84	64.58
25.45	-76.34	65.71
25.54	-76.84	66.93
25.64	-77.33	68.24
25.74	-77.82	69.62
25.84	-78.29	71.07
25.93	-78.76	72.58
26.03	-79.22	74.14
26.13	-79.66	75.73
26.23	-80.09	77.36
26.33	-80.50	79.00
26.43	-80.89	80.66
26.53	-81.26	82.31
26.63	-81.60	83.97
26.73	-81.93	85.62
26.83	-82.24	87.27
26.93	-82.53	88.90
27.03	-82.80	90.53
27.13	-83.05	92.14
27.23	-83.29	93.73
27.34	-83.51	95.30
27.44	-83.72	96.85
27.54	-83.90	98.36
27.65	-84.08	99.85
27.75	-84.24	101.30
27.86	-84.39	102.71
27.96	-84.52	104.08
28.07	-84.64	105.40
28.17	-84.76	106.67
28.28	-84.86	107.89
28.39	-84.95	109.04
28.49	-85.03	110.14
28.60	-85.11	111.17
28.71	-85.18	112.13
28.82	-85.24	113.01
28.93	-85.29	113.82
29.03	-85.35	114.54
29.14	-85.39	115.17
29.25	-85.44	115.71
29.36	-85.48	116.15
29.48	-85.52	116.49
29.59	-85.57	116.75
29.70	-85.61	116.93
29.81	-85.65	117.04
29.92	-85.69	117.09
30.04	-85.73	117.08
30.15	-85.77	117.03
30.26	-85.82	116.95
30.38	-85.87	116.84
30.49	-85.92	116.71
30.61	-85.97	116.58
30.72	-86.02	116.46
30.84	-86.08	116.35
30.95	-86.14	116.27
31.07	-86.21	116.22
31.19	-86.28	116.22
31.31	-86.36	116.28
31.42	-86.45	116.42
31.54	-86.54	116.63
31.66	-86.64	116.94
31.78	-86.74	117.36
31.90	-86.86	117.90
32.02	-86.98	118.57
32.14	-87.11	119.39
32.26	-87.26	120.37
32.39	-87.41	121.51
32.51	-87.57	122.81
32.63	-87.74	124.25
32.75	-87.91	125.82
32.88	-88.09	127.51
33.00	-88.27	129.31
33.13	-88.45	131.20
33.25	-88.62	133.18
33.38	-88.80	135.22
33.50	-88.97	137.31
33.63	-89.13	139.44
33.76	-89.28	141.60
33.88	-89.43	143.78
34.01	-89.56	145.94
34.14	-89.67	148.09
34.27	-89.77	150.20
34.40	-89.85	152.26
34.53	-89.91	154.25
34.66	-89.94	156.16
34.79	-89.95	157.97
34.92	-89.93	159.66
35.05	-89.89	161.21
35.18	-89.80	162.61
35.32	-89.69	163.84
35.45	-89.54	164.89
35.58	-89.36	165.77
35.72	-89.14	166.46
35.85	-88.90	166.97
35.99	-88.62	167.30
36.12	-88.32	167.43
36.26	-87.98	167.37
36.40	-87.62	167.10
36.53	-87.23	166.64
36.67	-86.82	165.97
36.81	-86.38	165.09
36.95	-85.92	163.99
37.09	-85.43	162.68
37.23	-84.93	161.14
37.37	-84.40	159.38
37.51	-83.86	157.38
37.65	-83.29	155.15
37.79	-82.71	152.69
37.94	-82.12	149.97
38.08	-81.51	147.01
38.22	-80.88	143.81
38.37	-80.25	140.39
38.51	-79.61	136.80
38.66	-78.97	133.07
38.80	-78.33	129.26
38.95	-77.70	125.40
39.10	-77.07	121.55
39.24	-76.46	117.74
39.39	-75.86	114.02
39.54	-75.28	110.45
39.69	-74.73	107.07
39.84	-74.21	103.93
39.99	-73.72	101.09
40.14	-73.26	98.59
40.29	-72.85	96.49
40.45	-72.49	94.85
40.60	-72.18	93.71
40.75	-71.92	93.15
40.90	-71.73	93.21
41.06	-71.60	93.96
41.21	-71.54	95.40
41.37	-71.55	97.46
41.53	-71.62	100.03
41.68	-71.75	103.04
41.84	-71.93	106.37
42.00	-72.17	109.94
42.16	-72.46	113.63
42.32	-72.80	117.34
42.47	-73.18	120.98
42.63	-73.60	124.42
42.80	-74.06	127.55
42.96	-74.54	130.27
43.12	-75.06	132.46
43.28	-75.60	134.00
43.45	-76.16	134.76
43.61	-76.74	134.62
43.77	-77.33	133.45
43.94	-77.92	131.14
44.10	-78.52	127.56
44.27	-79.12	122.78
44.44	-79.72	116.88
44.61	-80.31	109.95
44.77	-80.90	102.08
44.94	-81.48	93.37
45.11	-82.05	83.93
45.28	-82.61	73.84
45.45	-83.15	63.21
45.63	-83.67	52.15
45.80	-84.17	40.76
45.97	-84.65	29.16
46.14	-85.11	17.46
46.32	-85.53	5.77
46.49	-85.93	-5.80
46.67	-86.29	-17.11
46.84	-86.61	-28.05
47.02	-86.89	-38.50
47.20	-87.13	-48.43
47.38	-87.34	-57.87
47.56	-87.50	-66.83
47.74	-87.62	-75.31
47.92	-87.70	-83.33
48.10	-87.74	-90.91
48.28	-87.74	-98.06
48.46	-87.71	-104.79
48.64	-87.63	-111.12
48.83	-87.51	-117.07
49.01	-87.36	-122.65
49.20	-87.16	-127.88
49.38	-86.93	-132.77
49.57	-86.66	-137.35
49.75	-86.35	-141.63
49.94	-86.00	-145.63
50.13	-85.61	-149.36
50.32	-85.20	-152.84
50.51	-84.75	-156.06
50.70	-84.28	-159.05
50.89	-83.78	-161.82
51.08	-83.26	-164.37
51.28	-82.73	-166.71
51.47	-82.19	-168.87
51.66	-81.64	-170.84
51.86	-81.08	-172.66
52.05	-80.52	-174.31
52.25	-79.96	-175.83
52.45	-79.41	-177.22
52.65	-78.87	-178.50
52.85	-78.35	-179.68
53.04	-77.84	179.22
53.24	-77.36	178.15
53.45	-76.90	177.09
53.65	-76.48	176.01
53.85	-76.08	174.85
54.05	-75.73	173.60
54.26	-75.42	172.20
54.46	-75.15	170.63
54.67	-74.94	168.84
54.87	-74.77	166.79
55.08	-74.67	164.44
55.29	-74.64	161.75
55.50	-74.67	158.68
55.71	-74.77	155.18
55.92	-74.95	151.23
56.13	-75.19	146.84
56.34	-75.47	142.04
56.55	-75.78	136.84
56.77	-76.10	131.28
56.98	-76.43	125.38
57.19	-76.73	119.16
57.41	-77.00	112.65
57.63	-77.21	105.88
57.84	-77.36	98.86
58.06	-77.41	91.64
58.28	-77.37	84.24
58.50	-77.19	76.69
58.72	-76.87	69.01
58.94	-76.42	61.21
59.17	-75.87	53.27
59.39	-75.24	45.18
59.61	-74.58	36.90
59.84	-73.92	28.43
60.06	-73.29	19.74
60.29	-72.73	10.82
60.52	-72.27	1.63
60.75	-71.95	-7.84
60.98	-71.81	-17.62
61.21	-71.89	-27.72
61.44	-72.23	-38.17
61.67	-72.86	-48.99
61.90	-73.78	-60.16
62.14	-74.92	-71.63
62.37	-76.23	-83.35
62.61	-77.66	-95.26
62.84	-79.16	-107.30
63.08	-80.66	-119.43
63.32	-82.10	-131.58
63.56	-83.43	-143.69
63.80	-84.59	-155.71
64.04	-85.50	-167.57
64.28	-86.11	-179.21
64.52	-86.35	169.44
64.76	-86.18	158.45
65.01	-85.66	147.88
65.25	-84.81	137.81
65.50	-83.70	128.32
65.75	-82.36	119.50
66.00	-80.85	111.41
66.24	-79.21	104.15
66.49	-77.50	97.79
66.75	-75.77	92.43
67.00	-74.07	88.14
67.25	-72.46	85.03
67.50	-70.99	83.17
67.76	-69.68	82.50
68.01	-68.52	82.79
68.27	-67.49	83.78
68.53	-66.55	85.23
68.79	-65.71	86.87
69.05	-64.92	88.44
69.31	-64.18	89.68
69.57	-63.46	90.30
69.83	-62.74	90.02
70.09	-62.00	88.55
70.36	-61.20	85.59
70.62	-60.35	80.99
70.89	-59.46	74.92
71.16	-58.55	67.61
71.43	-57.66	59.29
71.70	-56.81	50.21
71.97	-56.02	40.60
72.24	-55.33	30.72
72.51	-54.77	20.82
72.79	-54.36	11.17
73.06	-54.13	2.04
73.34	-54.11	-6.30
73.61	-54.32	-13.73
73.89	-54.73	-20.33
74.17	-55.30	-26.22
74.45	-56.01	-31.53
74.73	-56.83	-36.37
75.01	-57.73	-40.86
75.29	-58.68	-45.14
75.58	-59.64	-49.34
75.86	-60.58	-53.59
76.15	-61.48	-58.02
76.44	-62.29	-62.74
76.73	-63.01	-67.68
77.02	-63.67	-72.72
77.31	-64.26	-77.72
77.60	-64.78	-82.56
77.89	-65.26	-87.09
78.18	-65.70	-91.18
78.48	-66.11	-94.69
78.78	-66.49	-97.48
79.07	-66.86	-99.39
79.37	-67.22	-100.30
79.67	-67.58	-100.28
79.97	-67.92	-99.42
80.27	-68.23	-97.85
80.58	-68.53	-95.66
80.88	-68.79	-92.99
81.19	-69.02	-89.95
81.49	-69.20	-86.67
81.80	-69.34	-83.26
82.11	-69.42	-79.87
82.42	-69.44	-76.56
82.73	-69.43	-73.34
83.04	-69.39	-70.19
83.35	-69.34	-67.07
83.67	-69.29	-63.99
83.99	-69.27	-60.90
84.30	-69.29	-57.79
84.62	-69.36	-54.65
84.94	-69.51	-51.44
85.26	-69.75	-48.16
85.58	-70.06	-44.90
85.90	-70.42	-41.77
86.23	-70.81	-38.90
86.55	-71.20	-36.40
86.88	-71.58	-34.40
87.21	-71.91	-33.03
87.54	-72.17	-32.41
87.87	-72.33	-32.69
88.20	-72.38	-33.96
88.53	-72.30	-36.18
88.87	-72.10	-39.26
89.20	-71.77	-43.11
89.54	-71.31	-47.64
89.88	-70.72	-52.74
90.22	-69.99	-58.32
90.56	-69.13	-64.27
90.90	-68.13	-70.50
91.24	-67.02	-76.88
91.59	-65.86	-83.30
91.93	-64.74	-89.63
92.28	-63.74	-95.75
92.63	-62.94	-101.51
92.98	-62.44	-106.79
93.33	-62.31	-111.44
93.68	-62.65	-115.33
94.03	-63.52	-118.33
94.39	-64.87	-120.50
94.74	-66.54	-121.96
95.10	-68.40	-122.86
95.46	-70.29	-123.33
95.82	-72.07	-123.52
96.18	-73.59	-123.56
96.54	-74.69	-123.61
96.91	-75.21	-123.82
97.27	-75.20	-124.23
97.64	-74.80	-124.85
98.01	-74.18	-125.64
98.38	-73.50	-126.61
98.75	-72.94	-127.73
99.12	-72.68	-129.00
99.50	-72.88	-130.39
99.87	-73.72	-131.90
100.25	-75.14	-133.43
100.63	-76.94	-134.87
101.01	-78.94	-136.10
101.39	-80.94	-137.01
101.77	-82.73	-137.46
102.16	-84.12	-137.32
102.54	-84.88	-136.48
102.93	-84.87	-134.83
103.32	-84.17	-132.49
103.71	-82.95	-129.59
104.10	-81.36	-126.29
104.49	-79.57	-122.74
104.88	-77.74	-119.10
105.28	-76.05	-115.54
105.68	-74.66	-112.21
106.08	-73.65	-109.19
106.48	-72.99	-106.52
106.88	-72.64	-104.19
107.28	-72.58	-102.22
107.69	-72.77	-100.63
108.09	-73.17	-99.43
108.50	-73.76	-98.64
108.91	-74.49	-98.25
109.32	-75.28	-98.26
109.73	-76.07	-98.63
110.15	-76.79	-99.35
110.56	-77.36	-100.41
110.98	-77.71	-101.77
111.40	-77.75	-103.42
111.82	-77.46	-105.29
112.24	-76.91	-107.27
112.67	-76.19	-109.18
113.09	-75.40	-110.89
113.52	-74.64	-112.23
113.95	-73.99	-113.05
114.38	-73.58	-113.17
114.81	-73.44	-112.57
115.24	-73.52	-111.47
115.68	-73.77	-110.13
116.11	-74.12	-108.78
116.55	-74.51	-107.71
116.99	-74.86	-107.18
117.43	-75.13	-107.43
117.87	-75.33	-108.22
118.32	-75.58	-108.87
118.77	-75.99	-108.67
119.21	-76.68	-106.87
119.66	-77.77	-102.74
120.12	-79.38	-95.51
120.57	-81.57	-84.83
121.02	-84.13	-72.07
121.48	-86.75	-59.09
121.94	-89.15	-47.79
122.40	-91.00	-40.11
122.86	-92.00	-38.03
123.32	-91.86	-43.42
123.79	-90.62	-55.73
124.26	-88.62	-72.52
124.73	-86.23	-91.22
125.20	-83.80	-109.20
125.67	-81.71	-123.80
126.14	-80.32	-132.29
126.62	-79.80	-133.99
127.10	-79.93	-131.25
127.58	-80.50	-126.71
128.06	-81.26	-123.11
128.54	-81.96	-123.22
129.03	-82.38	-129.87
129.51	-82.35	-144.07
130.00	-81.95	-163.16
130.49	-81.26	176.01
130.98	-80.39	156.67
131.48	-79.42	142.10
131.98	-78.45	135.68
132.47	-77.65	138.58
132.97	-77.26	148.07
133.48	-77.57	160.91
133.98	-78.85	173.78
134.48	-81.40	-176.70
134.99	-85.48	-173.92
135.50	-90.86	-179.03
136.01	-96.67	169.43
136.53	-102.01	153.13
137.04	-105.93	133.77
137.56	-107.48	113.09
138.08	-105.82	92.76
138.60	-101.36	73.64
139.12	-95.22	56.10
139.65	-88.52	40.51
140.17	-82.44	27.29
140.70	-78.16	16.82
141.23	-76.41	9.24
141.77	-76.66	3.98
142.30	-78.17	0.30
142.84	-80.14	-2.50
143.38	-81.81	-5.18
143.92	-82.42	-8.48
144.46	-81.91	-12.88
145.01	-80.67	-18.69
145.55	-79.11	-26.24
146.10	-77.64	-35.85
146.65	-76.68	-47.85
147.21	-76.48	-61.91
147.76	-77.02	-76.59
148.32	-78.22	-90.31
148.88	-80.04	-101.47
149.44	-82.40	-108.40
150.01	-85.17	-109.93
150.57	-87.97	-106.58
151.14	-90.39	-99.28
151.71	-91.96	-88.97
152.28	-92.23	-76.62
152.86	-90.88	-63.29
153.43	-88.24	-50.54
154.01	-84.93	-40.14
154.59	-81.56	-33.86
155.18	-78.75	-33.54
155.76	-77.07	-40.62
156.35	-76.42	-53.59
156.94	-76.50	-69.73
157.53	-76.96	-86.24
158.13	-77.46	-100.27
158.72	-77.68	-109.37
159.32	-77.62	-113.78
159.93	-77.35	-114.78
160.53	-76.95	-113.68
161.13	-76.50	-111.81
161.74	-76.10	-110.31
162.35	-75.77	-109.44
162.97	-75.56	-109.26
163.58	-75.51	-109.83
164.20	-75.66	-111.21
164.82	-75.99	-113.38
165.44	-76.39	-116.16
166.06	-76.72	-119.36
166.69	-76.83	-122.78
167.32	-76.59	-126.21
167.95	-76.00	-129.58
168.58	-75.22	-132.92
169.22	-74.40	-136.26
169.86	-73.71	-139.64
170.50	-73.27	-143.09
171.14	-72.98	-146.64
171.79	-72.67	-150.28
172.44	-72.16	-154.02
173.09	-71.27	-157.88
173.74	-70.10	-162.28
174.40	-69.17	-168.20
175.06	-69.02	-176.70
175.72	-70.23	171.13
176.38	-73.18	154.84
177.04	-77.20	137.51
177.71	-81.25	123.50
178.38	-84.25	117.24
179.06	-85.16	123.04
179.73	-83.94	139.66
180.41	-81.53	160.35
181.09	-78.93	177.99
181.77	-77.17	-174.69
182.46	-76.84	178.83
183.15	-77.49	164.05
183.84	-78.52	147.81
184.53	-79.31	137.13
185.23	-79.35	137.52
185.93	-78.77	146.71
186.63	-77.90	160.07
187.33	-77.06	172.87
188.04	-76.53	-179.44
188.75	-76.26	-179.10
189.46	-76.00	172.80
190.18	-75.48	155.18
190.90	-74.50	127.33
191.62	-73.28	93.82
192.34	-72.35	62.93
193.07	-72.28	43.17
193.79	-73.59	42.67
194.53	-76.13	60.46
195.26	-79.20	88.32
196.00	-82.07	117.64
196.74	-84.04	139.91
197.48	-84.99	150.75
198.22	-85.26	149.01
198.97	-85.23	133.58
199.72	-85.25	103.85
200.48	-85.67	64.72
201.23	-86.80	24.82
201.99	-88.96	-6.96
202.75	-92.33	-22.93
203.52	-96.07	-25.82
204.29	-98.82	-23.25
205.06	-99.18	-23.06
205.83	-96.21	-31.70
206.61	-90.93	-49.00
207.39	-84.93	-72.94
208.17	-79.86	-101.45
208.96	-76.76	-131.68
209.74	-75.36	-159.03
210.54	-75.23	-178.62
211.33	-75.91	174.32
212.13	-77.01	178.75
212.93	-78.22	-172.47
213.73	-79.23	-166.87
214.54	-79.79	-170.92
215.35	-80.07	177.19
216.16	-80.42	162.80
216.98	-81.20	151.35
217.80	-82.52	146.30
218.62	-83.93	146.68
219.44	-84.90	150.95
220.27	-84.95	157.52
221.10	-84.22	165.01
221.94	-83.29	172.15
222.77	-82.79	177.65
223.61	-82.96	-178.98
224.46	-83.08	-176.03
225.30	-82.25	-171.41
226.15	-79.69	-163.34
227.01	-76.15	-154.32
227.86	-73.41	-149.74
228.72	-73.31	-155.10
229.59	-76.36	-171.74
230.45	-80.41	167.51
231.32	-82.97	151.03
232.20	-82.00	145.74
233.07	-78.78	148.94
233.95	-75.85	154.12
234.84	-75.74	154.92
235.72	-78.54	150.94
236.61	-82.02	147.64
237.50	-83.82	150.78
238.40	-82.75	162.27
239.30	-80.13	175.61
240.20	-77.67	-176.89
241.11	-76.70	179.09
242.02	-76.74	167.58
242.93	-76.81	155.46
243.85	-76.02	148.98
244.77	-74.52	147.66
245.69	-73.03	147.43
246.62	-72.25	144.29
247.55	-72.31	137.41
248.48	-72.85	128.77
249.42	-73.48	120.40
250.36	-74.02	113.32
251.31	-74.56	107.24
252.26	-75.20	101.81
253.21	-76.00	97.31
254.16	-76.91	95.12
255.12	-77.90	96.72
256.09	-78.84	102.03
257.05	-79.45	107.90
258.02	-79.42	110.75
259.00	-78.75	108.73
259.97	-78.02	103.83
260.95	-77.94	98.58
261.94	-78.86	95.05
262.93	-80.39	94.24
263.92	-82.05	97.04
264.92	-83.39	103.73
265.92	-84.15	113.45
266.92	-84.05	125.15
267.93	-83.00	137.25
268.94	-81.22	147.28
269.95	-78.95	152.64
270.97	-76.55	151.78
271.99	-74.49	144.47
273.02	-73.25	130.71
274.05	-72.99	113.18
275.08	-73.56	97.08
276.12	-74.80	87.46
277.16	-76.21	85.89
278.21	-77.09	91.91
279.26	-76.88	103.94
280.31	-75.89	114.43
281.37	-74.69	113.65
282.43	-73.81	96.79
283.50	-73.46	73.70
284.57	-73.83	56.92
285.64	-74.81	52.07
286.72	-75.91	54.43
287.80	-76.59	58.62
288.89	-76.79	62.13
289.98	-76.74	64.47
291.07	-76.67	65.15
292.17	-76.70	63.42
293.27	-76.93	58.49
294.38	-77.50	50.95
295.49	-78.67	44.03
296.61	-80.62	41.09
297.73	-82.53	43.31
298.85	-82.83	50.27
299.98	-80.63	60.32
301.11	-77.69	67.28
302.25	-76.41	63.99
303.39	-77.41	51.02
304.53	-79.11	38.45
305.68	-80.02	35.20
306.83	-80.13	38.29
307.99	-80.02	40.19
309.15	-80.09	38.30
310.32	-80.42	38.18
311.49	-81.03	45.18
312.67	-81.87	57.05
313.85	-82.79	68.12
315.03	-83.38	74.67
316.22	-82.73	76.48
317.41	-80.15	73.94
318.61	-76.88	69.74
319.81	-74.91	67.38
321.02	-74.78	65.99
322.23	-75.03	58.78
323.45	-74.52	41.53
324.67	-74.36	23.69
325.89	-76.10	17.99
327.12	-79.03	25.16
328.36	-80.47	35.66
329.60	-79.06	41.83
330.84	-76.75	41.55
332.09	-75.67	34.24
333.34	-75.64	24.87
334.60	-75.51	20.53
335.86	-75.16	21.41
337.13	-75.56	20.43
338.40	-77.20	14.46
339.68	-79.15	11.23
340.96	-80.38	18.10
342.25	-80.47	29.69
343.54	-79.28	36.21
344.83	-77.33	35.53
346.14	-75.67	31.72
347.44	-74.95	26.62
348.75	-75.18	18.28
350.07	-76.11	6.07
351.39	-76.78	-5.36
352.72	-76.36	-11.04
354.05	-75.63	-10.45
355.38	-75.83	-5.05
356.72	-76.50	-0.22
358.07	-76.12	-3.69
359.42	-74.76	-15.70
360.78	-74.20	-28.39
362.14	-75.31	-36.65
363.51	-77.18	-40.67
364.88	-78.86	-40.86
366.25	-79.71	-36.82
367.64	-79.45	-28.69
369.02	-78.96	-19.23
370.42	-79.09	-12.24
371.81	-79.00	-13.84
373.22	-77.61	-28.76
374.63	-76.11	-45.90
376.04	-76.34	-49.40
377.46	-76.96	-44.22
378.88	-75.25	-45.99
380.31	-72.72	-59.70
381.75	-73.36	-82.95
383.19	-76.54	-107.39
384.63	-78.33	-121.10
386.09	-78.59	-125.86
387.54	-80.26	-134.66
389.00	-83.67	-157.99
390.47	-86.88	157.44
391.95	-88.45	108.32
393.43	-87.58	89.25
394.91	-85.07	91.98
396.40	-82.97	74.36
397.90	-81.37	39.85
399.40	-78.92	25.95
400.90	-76.46	31.78
