Freq[Hz]	[dBV]	Phase[Deg]
10.00	-64.57	-65.67
10.04	-64.44	-64.47
10.08	-64.31	-63.25
10.11	-64.17	-61.99
10.15	-64.03	-60.71
10.19	-63.88	-59.40
10.23	-63.73	-58.07
10.27	-63.58	-56.71
10.31	-63.43	-55.33
10.34	-63.28	-53.93
10.38	-63.12	-52.52
10.42	-62.96	-51.08
10.46	-62.80	-49.63
10.50	-62.64	-48.16
10.54	-62.47	-46.69
10.58	-62.31	-45.20
10.62	-62.14	-43.70
10.66	-61.97	-42.19
10.70	-61.80	-40.68
10.74	-61.63	-39.16
10.78	-61.46	-37.65
10.82	-61.28	-36.13
10.86	-61.11	-34.61
10.90	-60.94	-33.10
10.95	-60.77	-31.59
10.99	-60.59	-30.10
11.03	-60.42	-28.61
11.07	-60.25	-27.13
11.11	-60.08	-25.67
11.15	-59.91	-24.23
11.20	-59.74	-22.80
11.24	-59.57	-21.40
11.28	-59.40	-20.02
11.32	-59.24	-18.66
11.37	-59.08	-17.34
11.41	-58.92	-16.05
11.45	-58.76	-14.79
11.50	-58.61	-13.57
11.54	-58.45	-12.39
11.58	-58.31	-11.25
11.63	-58.16	-10.15
11.67	-58.02	-9.11
11.71	-57.88	-8.12
11.76	-57.75	-7.18
11.80	-57.62	-6.29
11.85	-57.50	-5.46
11.89	-57.38	-4.68
11.94	-57.26	-3.95
11.98	-57.15	-3.28
12.03	-57.04	-2.66
12.07	-56.94	-2.08
12.12	-56.84	-1.56
12.16	-56.75	-1.09
12.21	-56.65	-0.66
12.26	-56.57	-0.29
12.30	-56.48	0.05
12.35	-56.40	0.33
12.39	-56.32	0.57
12.44	-56.25	0.77
12.49	-56.18	0.92
12.54	-56.11	1.03
12.58	-56.05	1.10
12.63	-55.98	1.13
12.68	-55.93	1.12
12.73	-55.87	1.07
12.77	-55.82	0.98
12.82	-55.77	0.86
12.87	-55.72	0.70
12.92	-55.67	0.51
12.97	-55.63	0.28
13.02	-55.59	0.03
13.07	-55.55	-0.26
13.12	-55.51	-0.57
13.16	-55.48	-0.91
13.21	-55.45	-1.28
13.26	-55.42	-1.68
13.31	-55.38	-2.09
13.36	-55.36	-2.53
13.41	-55.33	-2.99
13.47	-55.30	-3.46
13.52	-55.28	-3.96
13.57	-55.25	-4.47
13.62	-55.23	-4.99
13.67	-55.20	-5.53
13.72	-55.18	-6.07
13.77	-55.15	-6.62
13.83	-55.13	-7.18
13.88	-55.11	-7.75
13.93	-55.08	-8.32
13.98	-55.06	-8.89
14.04	-55.03	-9.46
14.09	-55.00	-10.02
14.14	-54.98	-10.58
14.19	-54.95	-11.13
14.25	-54.92	-11.67
14.30	-54.88	-12.20
14.36	-54.85	-12.72
14.41	-54.81	-13.22
14.46	-54.77	-13.70
14.52	-54.73	-14.16
14.57	-54.69	-14.60
14.63	-54.64	-15.00
14.68	-54.59	-15.38
14.74	-54.53	-15.73
14.80	-54.47	-16.06
14.85	-54.41	-16.35
14.91	-54.35	-16.61
14.96	-54.28	-16.85
15.02	-54.21	-17.06
15.08	-54.14	-17.24
15.13	-54.06	-17.40
15.19	-53.98	-17.54
15.25	-53.90	-17.65
15.31	-53.81	-17.73
15.36	-53.72	-17.79
15.42	-53.63	-17.84
15.48	-53.54	-17.86
15.54	-53.44	-17.85
15.60	-53.35	-17.83
15.66	-53.25	-17.79
15.71	-53.14	-17.74
15.77	-53.04	-17.66
15.83	-52.93	-17.57
15.89	-52.82	-17.46
15.95	-52.72	-17.34
16.01	-52.60	-17.21
16.07	-52.49	-17.06
16.13	-52.38	-16.90
16.19	-52.26	-16.73
16.26	-52.14	-16.55
16.32	-52.02	-16.37
16.38	-51.90	-16.17
16.44	-51.78	-15.97
16.50	-51.66	-15.77
16.56	-51.54	-15.56
16.63	-51.42	-15.34
16.69	-51.30	-15.13
16.75	-51.17	-14.92
16.82	-51.05	-14.71
16.88	-50.93	-14.50
16.94	-50.80	-14.29
17.01	-50.68	-14.09
17.07	-50.56	-13.90
17.14	-50.44	-13.71
17.20	-50.32	-13.53
17.27	-50.20	-13.37
17.33	-50.08	-13.22
17.40	-49.96	-13.08
17.46	-49.84	-12.96
17.53	-49.73	-12.86
17.59	-49.62	-12.77
17.66	-49.51	-12.71
17.73	-49.40	-12.66
17.79	-49.29	-12.64
17.86	-49.18	-12.63
17.93	-49.08	-12.65
18.00	-48.98	-12.68
18.06	-48.88	-12.73
18.13	-48.78	-12.79
18.20	-48.68	-12.88
18.27	-48.59	-12.98
18.34	-48.49	-13.09
18.41	-48.40	-13.22
18.48	-48.31	-13.37
18.55	-48.22	-13.52
18.62	-48.13	-13.70
18.69	-48.04	-13.88
18.76	-47.95	-14.08
18.83	-47.87	-14.29
18.90	-47.78	-14.50
18.97	-47.70	-14.73
19.04	-47.62	-14.97
19.11	-47.53	-15.22
19.19	-47.45	-15.47
19.26	-47.37	-15.74
19.33	-47.29	-16.00
19.40	-47.21	-16.28
19.48	-47.13	-16.56
19.55	-47.05	-16.84
19.62	-46.97	-17.13
19.70	-46.89	-17.41
19.77	-46.81	-17.70
19.85	-46.73	-17.99
19.92	-46.65	-18.28
20.00	-46.57	-18.57
20.07	-46.49	-18.86
20.15	-46.41	-19.14
20.22	-46.33	-19.42
20.30	-46.25	-19.69
20.38	-46.16	-19.95
20.45	-46.08	-20.21
20.53	-46.00	-20.46
20.61	-45.91	-20.70
20.69	-45.82	-20.93
20.77	-45.73	-21.15
20.84	-45.65	-21.36
20.92	-45.55	-21.57
21.00	-45.46	-21.76
21.08	-45.37	-21.95
21.16	-45.28	-22.13
21.24	-45.18	-22.31
21.32	-45.09	-22.48
21.40	-44.99	-22.64
21.48	-44.89	-22.80
21.56	-44.80	-22.95
21.64	-44.70	-23.09
21.73	-44.60	-23.23
21.81	-44.50	-23.37
21.89	-44.40	-23.51
21.97	-44.29	-23.64
22.06	-44.19	-23.76
22.14	-44.09	-23.89
22.22	-43.98	-24.01
22.31	-43.88	-24.14
22.39	-43.77	-24.26
22.47	-43.66	-24.38
22.56	-43.56	-24.50
22.64	-43.45	-24.62
22.73	-43.34	-24.75
22.82	-43.23	-24.87
22.90	-43.12	-25.00
22.99	-43.01	-25.13
23.07	-42.90	-25.27
23.16	-42.79	-25.41
23.25	-42.68	-25.55
23.34	-42.57	-25.70
23.43	-42.46	-25.85
23.51	-42.35	-26.02
23.60	-42.23	-26.19
23.69	-42.12	-26.36
23.78	-42.01	-26.55
23.87	-41.90	-26.74
23.96	-41.78	-26.93
24.05	-41.67	-27.13
24.14	-41.55	-27.34
24.23	-41.44	-27.56
24.32	-41.33	-27.78
24.42	-41.21	-28.01
24.51	-41.09	-28.24
24.60	-40.98	-28.48
24.69	-40.86	-28.73
24.79	-40.74	-28.98
24.88	-40.63	-29.24
24.97	-40.51	-29.51
25.07	-40.39	-29.77
25.16	-40.27	-30.05
25.26	-40.15	-30.33
25.35	-40.03	-30.61
25.45	-39.91	-30.90
25.54	-39.79	-31.20
25.64	-39.67	-31.50
25.74	-39.55	-31.80
25.84	-39.42	-32.11
25.93	-39.30	-32.43
26.03	-39.18	-32.74
26.13	-39.05	-33.07
26.23	-38.93	-33.39
26.33	-38.80	-33.72
26.43	-38.67	-34.06
26.53	-38.55	-34.39
26.63	-38.42	-34.73
26.73	-38.29	-35.08
26.83	-38.16	-35.43
26.93	-38.03	-35.78
27.03	-37.90	-36.14
27.13	-37.76	-36.51
27.23	-37.63	-36.88
27.34	-37.50	-37.25
27.44	-37.36	-37.63
27.54	-37.23	-38.02
27.65	-37.09	-38.42
27.75	-36.96	-38.82
27.86	-36.82	-39.22
27.96	-36.68	-39.64
28.07	-36.54	-40.06
28.17	-36.40	-40.49
28.28	-36.26	-40.93
28.39	-36.12	-41.37
28.49	-35.98	-41.83
28.60	-35.84	-42.29
28.71	-35.70	-42.76
28.82	-35.55	-43.25
28.93	-35.41	-43.74
29.03	-35.27	-44.24
29.14	-35.12	-44.76
29.25	-34.98	-45.28
29.36	-34.83	-45.82
29.48	-34.68	-46.36
29.59	-34.53	-46.92
29.70	-34.39	-47.50
29.81	-34.24	-48.08
29.92	-34.09	-48.68
30.04	-33.94	-49.29
30.15	-33.79	-49.92
30.26	-33.64	-50.56
30.38	-33.49	-51.21
30.49	-33.34	-51.88
30.61	-33.19	-52.57
30.72	-33.03	-53.27
30.84	-32.88	-53.99
30.95	-32.73	-54.72
31.07	-32.58	-55.48
31.19	-32.43	-56.25
31.31	-32.27	-57.03
31.42	-32.12	-57.84
31.54	-31.97	-58.67
31.66	-31.82	-59.52
31.78	-31.67	-60.38
31.90	-31.52	-61.27
32.02	-31.36	-62.18
32.14	-31.21	-63.11
32.26	-31.06	-64.07
32.39	-30.91	-65.04
32.51	-30.76	-66.04
32.63	-30.61	-67.06
32.75	-30.47	-68.11
32.88	-30.32	-69.18
33.00	-30.17	-70.26
33.13	-30.03	-71.37
33.25	-29.89	-72.51
33.38	-29.75	-73.66
33.50	-29.61	-74.84
33.63	-29.47	-76.03
33.76	-29.34	-77.25
33.88	-29.21	-78.49
34.01	-29.08	-79.75
34.14	-28.96	-81.03
34.27	-28.84	-82.34
34.40	-28.72	-83.66
34.53	-28.61	-85.00
34.66	-28.50	-86.36
34.79	-28.39	-87.74
34.92	-28.29	-89.14
35.05	-28.20	-90.56
35.18	-28.11	-92.00
35.32	-28.02	-93.46
35.45	-27.94	-94.93
35.58	-27.87	-96.42
35.72	-27.80	-97.92
35.85	-27.74	-99.43
35.99	-27.68	-100.96
36.12	-27.63	-102.49
36.26	-27.58	-104.02
36.40	-27.54	-105.56
36.53	-27.50	-107.10
36.67	-27.47	-108.64
36.81	-27.44	-110.18
36.95	-27.42	-111.72
37.09	-27.40	-113.24
37.23	-27.39	-114.76
37.37	-27.38	-116.27
37.51	-27.38	-117.76
37.65	-27.38	-119.24
37.79	-27.39	-120.70
37.94	-27.40	-122.14
38.08	-27.41	-123.55
38.22	-27.43	-124.94
38.37	-27.46	-126.30
38.51	-27.48	-127.64
38.66	-27.51	-128.95
38.80	-27.55	-130.24
38.95	-27.59	-131.49
39.10	-27.63	-132.73
39.24	-27.67	-133.93
39.39	-27.72	-135.12
39.54	-27.77	-136.27
39.69	-27.82	-137.40
39.84	-27.87	-138.51
39.99	-27.93	-139.59
40.14	-27.99	-140.64
40.29	-28.04	-141.68
40.45	-28.10	-142.68
40.60	-28.16	-143.66
40.75	-28.22	-144.62
40.90	-28.28	-145.55
41.06	-28.34	-146.46
41.21	-28.40	-147.35
41.37	-28.46	-148.21
41.53	-28.52	-149.05
41.68	-28.58	-149.87
41.84	-28.63	-150.67
42.00	-28.69	-151.45
42.16	-28.75	-152.20
42.32	-28.80	-152.94
42.47	-28.86	-153.66
42.63	-28.91	-154.36
42.80	-28.97	-155.05
42.96	-29.02	-155.71
43.12	-29.07	-156.37
43.28	-29.12	-157.00
43.45	-29.17	-157.63
43.61	-29.22	-158.24
43.77	-29.27	-158.84
43.94	-29.32	-159.43
44.10	-29.37	-160.00
44.27	-29.42	-160.57
44.44	-29.46	-161.13
44.61	-29.50	-161.68
44.77	-29.55	-162.21
44.94	-29.59	-162.74
45.11	-29.63	-163.26
45.28	-29.67	-163.77
45.45	-29.71	-164.28
45.63	-29.75	-164.77
45.80	-29.79	-165.26
45.97	-29.82	-165.74
46.14	-29.86	-166.21
46.32	-29.89	-166.67
46.49	-29.92	-167.13
46.67	-29.95	-167.58
46.84	-29.98	-168.02
47.02	-30.01	-168.46
47.20	-30.04	-168.89
47.38	-30.06	-169.32
47.56	-30.09	-169.74
47.74	-30.11	-170.16
47.92	-30.13	-170.57
48.10	-30.15	-170.97
48.28	-30.17	-171.37
48.46	-30.19	-171.77
48.64	-30.21	-172.16
48.83	-30.22	-172.55
49.01	-30.24	-172.93
49.20	-30.25	-173.31
49.38	-30.26	-173.69
49.57	-30.27	-174.06
49.75	-30.28	-174.43
49.94	-30.29	-174.80
50.13	-30.30	-175.17
50.32	-30.31	-175.53
50.51	-30.31	-175.89
50.70	-30.32	-176.24
50.89	-30.32	-176.60
51.08	-30.33	-176.95
51.28	-30.33	-177.30
51.47	-30.33	-177.65
51.66	-30.33	-178.00
51.86	-30.33	-178.34
52.05	-30.33	-178.69
52.25	-30.32	-179.03
52.45	-30.32	-179.37
52.65	-30.31	-179.71
52.85	-30.31	179.95
53.04	-30.30	179.61
53.24	-30.29	179.28
53.45	-30.28	178.94
53.65	-30.27	178.60
53.85	-30.25	178.26
54.05	-30.24	177.93
54.26	-30.23	177.59
54.46	-30.21	177.25
54.67	-30.19	176.92
54.87	-30.17	176.58
55.08	-30.15	176.24
55.29	-30.13	175.90
55.50	-30.11	175.55
55.71	-30.09	175.21
55.92	-30.06	174.86
56.13	-30.04	174.51
56.34	-30.01	174.16
56.55	-29.98	173.81
56.77	-29.95	173.46
56.98	-29.92	173.10
57.19	-29.88	172.74
57.41	-29.85	172.38
57.63	-29.81	172.01
57.84	-29.78	171.65
58.06	-29.74	171.28
58.28	-29.70	170.90
58.50	-29.66	170.53
58.72	-29.62	170.15
58.94	-29.57	169.77
59.17	-29.53	169.38
59.39	-29.48	168.99
59.61	-29.44	168.60
59.84	-29.39	168.20
60.06	-29.34	167.80
60.29	-29.29	167.39
60.52	-29.23	166.97
60.75	-29.18	166.55
60.98	-29.12	166.12
61.21	-29.07	165.69
61.44	-29.01	165.24
61.67	-28.95	164.79
61.90	-28.89	164.34
62.14	-28.83	163.87
62.37	-28.76	163.39
62.61	-28.70	162.91
62.84	-28.63	162.41
63.08	-28.56	161.91
63.32	-28.49	161.39
63.56	-28.42	160.86
63.80	-28.34	160.32
64.04	-28.27	159.77
64.28	-28.19	159.21
64.52	-28.11	158.63
64.76	-28.03	158.04
65.01	-27.95	157.43
65.25	-27.87	156.81
65.50	-27.78	156.18
65.75	-27.69	155.52
66.00	-27.60	154.85
66.24	-27.51	154.16
66.49	-27.42	153.46
66.75	-27.32	152.73
67.00	-27.23	151.98
67.25	-27.13	151.21
67.50	-27.03	150.42
67.76	-26.92	149.61
68.01	-26.82	148.77
68.27	-26.72	147.90
68.53	-26.61	147.01
68.79	-26.50	146.09
69.05	-26.39	145.14
69.31	-26.28	144.16
69.57	-26.17	143.15
69.83	-26.06	142.11
70.09	-25.95	141.03
70.36	-25.83	139.91
70.62	-25.72	138.76
70.89	-25.60	137.57
71.16	-25.49	136.34
71.43	-25.37	135.07
71.70	-25.26	133.75
71.97	-25.15	132.39
72.24	-25.04	130.98
72.51	-24.93	129.52
72.79	-24.82	128.01
73.06	-24.71	126.45
73.34	-24.61	124.83
73.61	-24.51	123.16
73.89	-24.42	121.44
74.17	-24.33	119.66
74.45	-24.25	117.82
74.73	-24.17	115.94
75.01	-24.10	114.01
75.29	-24.04	112.03
75.58	-23.98	110.01
75.86	-23.94	107.94
76.15	-23.90	105.82
76.44	-23.88	103.67
76.73	-23.87	101.48
77.02	-23.87	99.26
77.31	-23.88	97.01
77.60	-23.90	94.75
77.89	-23.94	92.47
78.18	-23.99	90.19
78.48	-24.05	87.91
78.78	-24.12	85.65
79.07	-24.21	83.39
79.37	-24.30	81.16
79.67	-24.42	78.96
79.97	-24.54	76.79
80.27	-24.67	74.65
80.58	-24.82	72.55
80.88	-24.97	70.49
81.19	-25.13	68.48
81.49	-25.30	66.51
81.80	-25.48	64.59
82.11	-25.67	62.74
82.42	-25.85	60.94
82.73	-26.05	59.19
83.04	-26.25	57.51
83.35	-26.45	55.88
83.67	-26.65	54.30
83.99	-26.86	52.78
84.30	-27.07	51.32
84.62	-27.28	49.90
84.94	-27.49	48.54
85.26	-27.71	47.22
85.58	-27.92	45.95
85.90	-28.13	44.73
86.23	-28.34	43.56
86.55	-28.55	42.42
86.88	-28.76	41.33
87.21	-28.97	40.28
87.54	-29.18	39.26
87.87	-29.39	38.27
88.20	-29.59	37.32
88.53	-29.80	36.40
88.87	-30.00	35.52
89.20	-30.20	34.66
89.54	-30.40	33.83
89.88	-30.60	33.03
90.22	-30.79	32.25
90.56	-30.99	31.50
90.90	-31.18	30.78
91.24	-31.37	30.08
91.59	-31.55	29.41
91.93	-31.74	28.76
92.28	-31.92	28.13
92.63	-32.10	27.52
92.98	-32.28	26.93
93.33	-32.46	26.36
93.68	-32.64	25.81
94.03	-32.81	25.28
94.39	-32.98	24.76
94.74	-33.15	24.26
95.10	-33.33	23.78
95.46	-33.49	23.31
95.82	-33.66	22.85
96.18	-33.83	22.39
96.54	-33.99	21.95
96.91	-34.16	21.52
97.27	-34.32	21.09
97.64	-34.48	20.66
98.01	-34.64	20.25
98.38	-34.80	19.84
98.75	-34.95	19.45
99.12	-35.11	19.06
99.50	-35.26	18.69
99.87	-35.41	18.33
100.25	-35.56	17.98
100.63	-35.70	17.64
101.01	-35.85	17.31
101.39	-35.99	17.00
101.77	-36.14	16.69
102.16	-36.28	16.39
102.54	-36.42	16.10
102.93	-36.56	15.81
103.32	-36.70	15.53
103.71	-36.84	15.26
104.10	-36.98	14.99
104.49	-37.12	14.72
104.88	-37.26	14.46
105.28	-37.40	14.19
105.68	-37.53	13.93
106.08	-37.67	13.67
106.48	-37.80	13.41
106.88	-37.93	13.15
107.28	-38.07	12.90
107.69	-38.20	12.65
108.09	-38.33	12.41
108.50	-38.45	12.18
108.91	-38.58	11.95
109.32	-38.71	11.73
109.73	-38.83	11.52
110.15	-38.96	11.32
110.56	-39.08	11.11
110.98	-39.21	10.91
111.40	-39.34	10.72
111.82	-39.47	10.52
112.24	-39.60	10.32
112.67	-39.73	10.12
113.09	-39.85	9.92
113.52	-39.98	9.72
113.95	-40.11	9.52
114.38	-40.23	9.31
114.81	-40.35	9.09
115.24	-40.47	8.87
115.68	-40.59	8.66
116.11	-40.71	8.44
116.55	-40.82	8.23
116.99	-40.94	8.03
117.43	-41.06	7.83
117.87	-41.18	7.64
118.32	-41.30	7.45
118.77	-41.42	7.26
119.21	-41.54	7.07
119.66	-41.66	6.87
120.12	-41.78	6.65
120.57	-41.90	6.42
121.02	-42.02	6.18
121.48	-42.13	5.93
121.94	-42.25	5.68
122.40	-42.36	5.44
122.86	-42.46	5.21
123.32	-42.56	5.00
123.79	-42.66	4.81
124.26	-42.76	4.64
124.73	-42.86	4.47
125.20	-42.95	4.31
125.67	-43.05	4.15
126.14	-43.15	3.98
126.62	-43.25	3.80
127.10	-43.35	3.61
127.58	-43.46	3.42
128.06	-43.56	3.23
128.54	-43.67	3.04
129.03	-43.77	2.84
129.51	-43.87	2.66
130.00	-43.96	2.47
130.49	-44.06	2.30
130.98	-44.15	2.12
131.48	-44.24	1.96
131.98	-44.33	1.80
132.47	-44.42	1.65
132.97	-44.50	1.50
133.48	-44.59	1.35
133.98	-44.68	1.19
134.48	-44.77	1.02
134.99	-44.86	0.84
135.50	-44.96	0.65
136.01	-45.05	0.45
136.53	-45.14	0.25
137.04	-45.24	0.05
137.56	-45.33	-0.12
138.08	-45.41	-0.28
138.60	-45.49	-0.41
139.12	-45.57	-0.53
139.65	-45.64	-0.63
140.17	-45.72	-0.73
140.70	-45.80	-0.83
141.23	-45.88	-0.94
141.77	-45.97	-1.05
142.30	-46.05	-1.17
142.84	-46.14	-1.31
143.38	-46.22	-1.45
143.92	-46.30	-1.61
144.46	-46.38	-1.78
145.01	-46.46	-1.95
145.55	-46.53	-2.11
146.10	-46.61	-2.26
146.65	-46.69	-2.38
147.21	-46.77	-2.48
147.76	-46.85	-2.56
148.32	-46.92	-2.63
148.88	-47.00	-2.70
149.44	-47.08	-2.78
150.01	-47.16	-2.88
150.57	-47.24	-2.99
151.14	-47.31	-3.10
151.71	-47.39	-3.19
152.28	-47.46	-3.28
152.86	-47.54	-3.33
153.43	-47.61	-3.37
154.01	-47.69	-3.38
154.59	-47.77	-3.40
155.18	-47.85	-3.41
155.76	-47.94	-3.43
156.35	-48.04	-3.46
156.94	-48.13	-3.50
157.53	-48.23	-3.55
158.13	-48.32	-3.62
158.72	-48.41	-3.71
159.32	-48.50	-3.80
159.93	-48.58	-3.89
160.53	-48.67	-3.97
161.13	-48.76	-4.02
161.74	-48.86	-4.05
162.35	-48.95	-4.07
162.97	-49.06	-4.11
163.58	-49.16	-4.19
164.20	-49.25	-4.34
164.82	-49.35	-4.58
165.44	-49.44	-4.87
166.06	-49.52	-5.18
166.69	-49.61	-5.47
167.32	-49.70	-5.71
167.95	-49.79	-5.89
168.58	-49.88	-6.04
169.22	-49.97	-6.21
169.86	-50.06	-6.43
170.50	-50.14	-6.72
171.14	-50.23	-7.08
171.79	-50.31	-7.47
172.44	-50.38	-7.86
173.09	-50.45	-8.24
173.74	-50.50	-8.58
174.40	-50.55	-8.88
175.06	-50.60	-9.14
175.72	-50.64	-9.37
176.38	-50.70	-9.57
177.04	-50.76	-9.74
177.71	-50.81	-9.90
178.38	-50.86	-10.07
179.06	-50.90	-10.26
179.73	-50.93	-10.45
180.41	-50.95	-10.61
181.09	-50.98	-10.73
181.77	-51.02	-10.75
182.46	-51.08	-10.68
183.15	-51.15	-10.57
183.84	-51.23	-10.47
184.53	-51.31	-10.45
185.23	-51.38	-10.55
185.93	-51.46	-10.74
186.63	-51.54	-10.94
187.33	-51.62	-11.08
188.04	-51.70	-11.10
188.75	-51.79	-11.03
189.46	-51.88	-10.95
190.18	-51.98	-10.93
190.90	-52.09	-11.06
191.62	-52.20	-11.32
192.34	-52.31	-11.67
193.07	-52.40	-12.04
193.79	-52.47	-12.39
194.53	-52.52	-12.71
195.26	-52.56	-13.00
196.00	-52.60	-13.28
196.74	-52.66	-13.58
197.48	-52.73	-13.88
198.22	-52.81	-14.17
198.97	-52.88	-14.42
199.72	-52.92	-14.62
200.48	-52.95	-14.74
201.23	-52.97	-14.80
201.99	-53.00	-14.79
202.75	-53.06	-14.71
203.52	-53.13	-14.61
204.29	-53.21	-14.51
205.06	-53.28	-14.48
205.83	-53.33	-14.53
206.61	-53.38	-14.64
207.39	-53.43	-14.76
208.17	-53.49	-14.83
208.96	-53.58	-14.85
209.74	-53.68	-14.84
210.54	-53.78	-14.85
211.33	-53.89	-14.94
212.13	-53.99	-15.10
212.93	-54.08	-15.29
213.73	-54.16	-15.45
214.54	-54.24	-15.55
215.35	-54.31	-15.63
216.16	-54.38	-15.75
216.98	-54.45	-15.98
217.80	-54.53	-16.35
218.62	-54.60	-16.76
219.44	-54.65	-17.08
220.27	-54.67	-17.21
221.10	-54.67	-17.19
221.94	-54.67	-17.13
222.77	-54.68	-17.17
223.61	-54.72	-17.38
224.46	-54.77	-17.62
225.30	-54.81	-17.75
226.15	-54.84	-17.63
227.01	-54.86	-17.31
227.86	-54.89	-16.98
228.72	-54.93	-16.80
229.59	-55.01	-16.87
230.45	-55.09	-17.06
231.32	-55.16	-17.19
232.20	-55.19	-17.15
233.07	-55.20	-16.97
233.95	-55.22	-16.80
234.84	-55.26	-16.77
235.72	-55.34	-16.91
236.61	-55.42	-17.18
237.50	-55.48	-17.52
238.40	-55.52	-17.88
239.30	-55.54	-18.21
240.20	-55.57	-18.45
241.11	-55.63	-18.57
242.02	-55.70	-18.65
242.93	-55.75	-18.80
243.85	-55.77	-19.14
244.77	-55.76	-19.62
245.69	-55.75	-20.15
246.62	-55.77	-20.62
247.55	-55.81	-21.01
248.48	-55.84	-21.33
249.42	-55.82	-21.62
250.36	-55.75	-21.86
251.31	-55.68	-21.98
252.26	-55.64	-21.91
253.21	-55.66	-21.66
254.16	-55.71	-21.43
255.12	-55.75	-21.40
256.09	-55.78	-21.65
257.05	-55.80	-22.00
258.02	-55.84	-22.23
259.00	-55.90	-22.28
259.97	-55.98	-22.33
260.95	-56.05	-22.61
261.94	-56.11	-23.24
262.93	-56.16	-24.04
263.92	-56.20	-24.82
264.92	-56.24	-25.46
265.92	-56.27	-26.00
266.92	-56.29	-26.51
267.93	-56.30	-27.03
268.94	-56.31	-27.51
269.95	-56.32	-27.90
270.97	-56.34	-28.24
271.99	-56.37	-28.60
273.02	-56.40	-29.09
274.05	-56.43	-29.66
275.08	-56.46	-30.14
276.12	-56.48	-30.38
277.16	-56.50	-30.53
278.21	-56.52	-30.90
279.26	-56.55	-31.73
280.31	-56.59	-32.77
281.37	-56.64	-33.59
282.43	-56.71	-33.95
283.50	-56.76	-34.19
284.57	-56.79	-34.75
285.64	-56.79	-35.76
286.72	-56.81	-36.83
287.80	-56.90	-37.59
288.89	-57.03	-38.04
289.98	-57.18	-38.49
291.07	-57.31	-39.17
292.17	-57.43	-39.91
293.27	-57.59	-40.42
294.38	-57.79	-40.62
295.49	-57.99	-40.79
296.61	-58.12	-41.23
297.73	-58.18	-41.81
298.85	-58.20	-42.12
299.98	-58.20	-41.90
301.11	-58.21	-41.47
302.25	-58.23	-41.33
303.39	-58.28	-41.52
304.53	-58.34	-41.56
305.68	-58.40	-41.06
306.83	-58.46	-40.42
307.99	-58.51	-40.31
309.15	-58.55	-40.98
310.32	-58.56	-41.90
311.49	-58.57	-42.54
312.67	-58.56	-42.97
313.85	-58.54	-43.48
315.03	-58.53	-44.23
316.22	-58.50	-45.10
317.41	-58.48	-45.94
318.61	-58.46	-46.85
319.81	-58.49	-48.01
321.02	-58.58	-49.43
322.23	-58.74	-50.83
323.45	-58.98	-52.05
324.67	-59.27	-53.38
325.89	-59.60	-55.20
327.12	-59.98	-57.08
328.36	-60.48	-57.84
329.60	-61.07	-56.84
330.84	-61.59	-54.72
332.09	-61.85	-52.22
333.34	-61.93	-49.45
334.60	-62.01	-46.26
335.86	-62.09	-42.92
337.13	-61.98	-40.12
338.40	-61.59	-38.38
339.68	-61.14	-37.62
340.96	-60.87	-37.70
342.25	-60.73	-38.49
343.54	-60.59	-39.87
344.83	-60.45	-41.37
346.14	-60.45	-42.26
347.44	-60.61	-42.26
348.75	-60.78	-41.75
350.07	-60.82	-41.15
351.39	-60.71	-40.85
352.72	-60.48	-41.11
354.05	-60.25	-41.64
355.38	-60.22	-41.93
356.72	-60.31	-41.50
358.07	-60.33	-39.86
359.42	-60.17	-37.74
360.78	-59.83	-37.11
362.14	-59.42	-38.71
363.51	-59.15	-41.05
364.88	-59.13	-42.79
366.25	-59.11	-43.50
367.64	-58.84	-43.29
369.02	-58.47	-43.73
370.42	-58.18	-46.27
371.81	-58.05	-49.81
373.22	-58.12	-52.56
374.63	-58.28	-54.04
376.04	-58.37	-54.43
377.46	-58.33	-54.97
378.88	-58.14	-57.28
380.31	-57.91	-60.84
381.75	-57.84	-63.83
383.19	-57.92	-66.36
384.63	-58.00	-69.87
386.09	-58.15	-74.25
387.54	-58.59	-78.13
389.00	-59.31	-80.60
390.47	-60.11	-81.22
391.95	-60.75	-80.53
393.43	-61.02	-79.85
394.91	-61.05	-79.49
396.40	-61.26	-78.97
397.90	-61.64	-77.96
399.40	-61.86	-76.38
400.90	-61.94	-74.97
402.42	-62.10	-74.89
403.94	-62.31	-75.67
405.46	-62.40	-75.95
406.99	-62.43	-75.79
408.53	-62.56	-75.81
410.07	-62.75	-75.58
411.61	-62.90	-74.57
413.17	-63.10	-73.74
414.73	-63.40	-73.91
416.29	-63.57	-73.82
