Freq[Hz]	[dBV]	Phase[Deg]
10.00	-70.18	-171.00
10.04	-70.37	-168.88
10.08	-70.56	-166.77
10.11	-70.76	-164.66
10.15	-70.95	-162.55
10.19	-71.14	-160.45
10.23	-71.33	-158.35
10.27	-71.52	-156.26
10.31	-71.71	-154.18
10.34	-71.90	-152.10
10.38	-72.09	-150.04
10.42	-72.27	-147.99
10.46	-72.46	-145.95
10.50	-72.64	-143.93
10.54	-72.82	-141.93
10.58	-72.99	-139.95
10.62	-73.17	-137.98
10.66	-73.34	-136.04
10.70	-73.50	-134.12
10.74	-73.67	-132.23
10.78	-73.83	-130.37
10.82	-73.98	-128.54
10.86	-74.13	-126.73
10.90	-74.27	-124.97
10.95	-74.41	-123.23
10.99	-74.55	-121.54
11.03	-74.67	-119.88
11.07	-74.80	-118.27
11.11	-74.91	-116.70
11.15	-75.02	-115.17
11.20	-75.12	-113.69
11.24	-75.21	-112.27
11.28	-75.30	-110.89
11.32	-75.37	-109.57
11.37	-75.44	-108.31
11.41	-75.50	-107.11
11.45	-75.55	-105.97
11.50	-75.58	-104.90
11.54	-75.61	-103.89
11.58	-75.63	-102.95
11.63	-75.64	-102.09
11.67	-75.63	-101.30
11.71	-75.61	-100.59
11.76	-75.58	-99.96
11.80	-75.54	-99.41
11.85	-75.49	-98.93
11.89	-75.42	-98.54
11.94	-75.34	-98.22
11.98	-75.25	-97.97
12.03	-75.15	-97.80
12.07	-75.04	-97.69
12.12	-74.92	-97.66
12.16	-74.79	-97.69
12.21	-74.64	-97.78
12.26	-74.49	-97.94
12.30	-74.33	-98.15
12.35	-74.16	-98.43
12.39	-73.98	-98.76
12.44	-73.80	-99.15
12.49	-73.61	-99.58
12.54	-73.40	-100.07
12.58	-73.20	-100.60
12.63	-72.98	-101.18
12.68	-72.76	-101.79
12.73	-72.54	-102.45
12.77	-72.30	-103.15
12.82	-72.07	-103.87
12.87	-71.83	-104.63
12.92	-71.58	-105.42
12.97	-71.33	-106.23
13.02	-71.08	-107.07
13.07	-70.83	-107.92
13.12	-70.57	-108.79
13.16	-70.32	-109.67
13.21	-70.06	-110.56
13.26	-69.80	-111.46
13.31	-69.54	-112.36
13.36	-69.29	-113.26
13.41	-69.03	-114.15
13.47	-68.78	-115.04
13.52	-68.53	-115.91
13.57	-68.28	-116.77
13.62	-68.04	-117.61
13.67	-67.80	-118.43
13.72	-67.56	-119.21
13.77	-67.34	-119.97
13.83	-67.12	-120.69
13.88	-66.90	-121.36
13.93	-66.70	-122.00
13.98	-66.50	-122.58
14.04	-66.31	-123.11
14.09	-66.13	-123.57
14.14	-65.97	-123.98
14.19	-65.81	-124.31
14.25	-65.67	-124.57
14.30	-65.55	-124.75
14.36	-65.43	-124.85
14.41	-65.33	-124.86
14.46	-65.25	-124.77
14.52	-65.19	-124.58
14.57	-65.14	-124.28
14.63	-65.11	-123.87
14.68	-65.11	-123.34
14.74	-65.12	-122.69
14.80	-65.15	-121.92
14.85	-65.20	-121.04
14.91	-65.27	-120.04
14.96	-65.36	-118.93
15.02	-65.46	-117.72
15.08	-65.59	-116.39
15.13	-65.72	-114.96
15.19	-65.88	-113.43
15.25	-66.05	-111.80
15.31	-66.23	-110.07
15.36	-66.43	-108.24
15.42	-66.64	-106.33
15.48	-66.86	-104.32
15.54	-67.10	-102.23
15.60	-67.34	-100.05
15.66	-67.60	-97.79
15.71	-67.87	-95.46
15.77	-68.14	-93.05
15.83	-68.42	-90.57
15.89	-68.71	-88.02
15.95	-69.01	-85.41
16.01	-69.31	-82.73
16.07	-69.62	-80.00
16.13	-69.93	-77.22
16.19	-70.25	-74.38
16.26	-70.56	-71.50
16.32	-70.88	-68.57
16.38	-71.20	-65.61
16.44	-71.51	-62.62
16.50	-71.83	-59.59
16.56	-72.14	-56.54
16.63	-72.45	-53.47
16.69	-72.75	-50.38
16.75	-73.05	-47.28
16.82	-73.34	-44.17
16.88	-73.62	-41.06
16.94	-73.89	-37.96
17.01	-74.15	-34.86
17.07	-74.40	-31.77
17.14	-74.64	-28.71
17.20	-74.86	-25.66
17.27	-75.07	-22.65
17.33	-75.26	-19.67
17.40	-75.43	-16.74
17.46	-75.58	-13.85
17.53	-75.70	-11.01
17.59	-75.81	-8.23
17.66	-75.89	-5.52
17.73	-75.95	-2.87
17.79	-75.99	-0.28
17.86	-76.01	2.23
17.93	-76.00	4.68
18.00	-75.98	7.06
18.06	-75.94	9.37
18.13	-75.88	11.61
18.20	-75.80	13.77
18.27	-75.71	15.86
18.34	-75.60	17.88
18.41	-75.48	19.82
18.48	-75.34	21.69
18.55	-75.20	23.48
18.62	-75.04	25.19
18.69	-74.88	26.82
18.76	-74.71	28.36
18.83	-74.53	29.83
18.90	-74.34	31.21
18.97	-74.15	32.51
19.04	-73.96	33.73
19.11	-73.76	34.85
19.19	-73.56	35.89
19.26	-73.37	36.84
19.33	-73.17	37.70
19.40	-72.98	38.46
19.48	-72.80	39.14
19.55	-72.62	39.72
19.62	-72.45	40.20
19.70	-72.29	40.59
19.77	-72.14	40.87
19.85	-72.00	41.06
19.92	-71.88	41.15
20.00	-71.77	41.14
20.07	-71.68	41.02
20.15	-71.61	40.79
20.22	-71.57	40.46
20.30	-71.54	40.02
20.38	-71.54	39.48
20.45	-71.57	38.82
20.53	-71.63	38.05
20.61	-71.72	37.16
20.69	-71.83	36.17
20.77	-71.97	35.08
20.84	-72.14	33.90
20.92	-72.34	32.62
21.00	-72.56	31.26
21.08	-72.80	29.82
21.16	-73.06	28.31
21.24	-73.34	26.73
21.32	-73.64	25.09
21.40	-73.95	23.40
21.48	-74.28	21.67
21.56	-74.62	19.89
21.64	-74.98	18.08
21.73	-75.34	16.25
21.81	-75.71	14.40
21.89	-76.09	12.54
21.97	-76.47	10.67
22.06	-76.86	8.81
22.14	-77.25	6.97
22.22	-77.63	5.14
22.31	-78.01	3.35
22.39	-78.39	1.60
22.47	-78.76	-0.11
22.56	-79.12	-1.76
22.64	-79.47	-3.35
22.73	-79.81	-4.86
22.82	-80.13	-6.29
22.90	-80.43	-7.62
22.99	-80.71	-8.85
23.07	-80.97	-9.96
23.16	-81.20	-10.95
23.25	-81.41	-11.80
23.34	-81.58	-12.50
23.43	-81.72	-13.05
23.51	-81.83	-13.43
23.60	-81.90	-13.64
23.69	-81.94	-13.67
23.78	-81.95	-13.53
23.87	-81.93	-13.20
23.96	-81.89	-12.70
24.05	-81.82	-12.01
24.14	-81.73	-11.14
24.23	-81.62	-10.08
24.32	-81.49	-8.83
24.42	-81.35	-7.39
24.51	-81.20	-5.75
24.60	-81.04	-3.92
24.69	-80.88	-1.89
24.79	-80.71	0.34
24.88	-80.53	2.78
24.97	-80.37	5.42
25.07	-80.20	8.27
25.16	-80.04	11.33
25.26	-79.90	14.61
25.35	-79.77	18.10
25.45	-79.65	21.80
25.54	-79.56	25.73
25.64	-79.49	29.88
25.74	-79.45	34.26
25.84	-79.43	38.87
25.93	-79.45	43.71
26.03	-79.51	48.78
26.13	-79.61	54.09
26.23	-79.76	59.63
26.33	-79.95	65.42
26.43	-80.20	71.45
26.53	-80.50	77.72
26.63	-80.85	84.17
26.73	-81.24	90.80
26.83	-81.68	97.56
26.93	-82.15	104.43
27.03	-82.66	111.37
27.13	-83.19	118.35
27.23	-83.76	125.33
27.34	-84.34	132.28
27.44	-84.94	139.17
27.54	-85.55	145.95
27.65	-86.18	152.59
27.75	-86.80	159.04
27.86	-87.43	165.28
27.96	-88.04	171.26
28.07	-88.65	176.94
28.17	-89.24	-177.72
28.28	-89.81	-172.76
28.39	-90.36	-168.24
28.49	-90.87	-164.19
28.60	-91.35	-160.65
28.71	-91.78	-157.68
28.82	-92.16	-155.32
28.93	-92.49	-153.63
29.03	-92.76	-152.64
29.14	-92.96	-152.42
29.25	-93.09	-153.01
29.36	-93.14	-154.45
29.48	-93.11	-156.75
29.59	-93.01	-159.86
29.70	-92.84	-163.72
29.81	-92.61	-168.28
29.92	-92.32	-173.48
30.04	-91.99	-179.27
30.15	-91.61	174.40
30.26	-91.19	167.60
30.38	-90.74	160.39
30.49	-90.27	152.82
30.61	-89.78	144.96
30.72	-89.28	136.88
30.84	-88.77	128.64
30.95	-88.27	120.30
31.07	-87.78	111.94
31.19	-87.31	103.63
31.31	-86.86	95.43
31.42	-86.45	87.42
31.54	-86.09	79.69
31.66	-85.77	72.29
31.78	-85.51	65.32
31.90	-85.32	58.85
32.02	-85.21	52.97
32.14	-85.18	47.75
32.26	-85.25	43.29
32.39	-85.41	39.62
32.51	-85.67	36.69
32.63	-86.01	34.46
32.75	-86.42	32.87
32.88	-86.90	31.86
33.00	-87.45	31.37
33.13	-88.04	31.36
33.25	-88.67	31.75
33.38	-89.34	32.49
33.50	-90.03	33.50
33.63	-90.73	34.74
33.76	-91.44	36.13
33.88	-92.14	37.61
34.01	-92.83	39.10
34.14	-93.49	40.54
34.27	-94.12	41.85
34.40	-94.70	42.96
34.53	-95.22	43.80
34.66	-95.67	44.28
34.79	-96.03	44.33
34.92	-96.31	43.87
35.05	-96.48	42.81
35.18	-96.54	41.08
35.32	-96.47	38.62
35.45	-96.29	35.50
35.58	-95.99	31.77
35.72	-95.60	27.51
35.85	-95.11	22.79
35.99	-94.55	17.67
36.12	-93.91	12.23
36.26	-93.20	6.55
36.40	-92.44	0.70
36.53	-91.64	-5.24
36.67	-90.81	-11.19
36.81	-89.95	-17.07
36.95	-89.08	-22.80
37.09	-88.20	-28.29
37.23	-87.34	-33.44
37.37	-86.49	-38.18
37.51	-85.68	-42.42
37.65	-84.91	-46.04
37.79	-84.20	-48.98
37.94	-83.55	-51.11
38.08	-82.99	-52.35
38.22	-82.51	-52.62
38.37	-82.13	-51.93
38.51	-81.83	-50.34
38.66	-81.61	-47.90
38.80	-81.46	-44.66
38.95	-81.38	-40.69
39.10	-81.35	-36.02
39.24	-81.38	-30.73
39.39	-81.46	-24.87
39.54	-81.58	-18.50
39.69	-81.73	-11.69
39.84	-81.91	-4.49
39.99	-82.11	3.02
40.14	-82.32	10.79
40.29	-82.54	18.74
40.45	-82.75	26.80
40.60	-82.96	34.90
40.75	-83.15	42.97
40.90	-83.31	50.94
41.06	-83.43	58.72
41.21	-83.52	66.28
41.37	-83.57	73.64
41.53	-83.58	80.81
41.68	-83.56	87.83
41.84	-83.50	94.73
42.00	-83.41	101.53
42.16	-83.30	108.26
42.32	-83.15	114.96
42.47	-82.99	121.64
42.63	-82.79	128.35
42.80	-82.58	135.11
42.96	-82.35	141.95
43.12	-82.10	148.91
43.28	-81.84	156.02
43.45	-81.57	163.32
43.61	-81.28	170.84
43.77	-80.99	178.62
43.94	-80.70	-173.31
44.10	-80.40	-164.93
44.27	-80.10	-156.27
44.44	-79.81	-147.43
44.61	-79.52	-138.46
44.77	-79.24	-129.45
44.94	-78.96	-120.46
45.11	-78.71	-111.57
45.28	-78.46	-102.87
45.45	-78.23	-94.44
45.63	-78.02	-86.35
45.80	-77.84	-78.70
45.97	-77.68	-71.56
46.14	-77.55	-65.04
46.32	-77.45	-59.20
46.49	-77.39	-54.16
46.67	-77.36	-50.01
46.84	-77.37	-46.83
47.02	-77.43	-44.71
47.20	-77.53	-43.56
47.38	-77.65	-43.24
47.56	-77.81	-43.60
47.74	-77.98	-44.47
47.92	-78.16	-45.71
48.10	-78.34	-47.14
48.28	-78.52	-48.60
48.46	-78.68	-49.92
48.64	-78.83	-50.93
48.83	-78.95	-51.44
49.01	-79.03	-51.28
49.20	-79.06	-50.26
49.38	-79.04	-48.19
49.57	-78.96	-44.87
49.75	-78.81	-40.11
49.94	-78.57	-33.72
50.13	-78.26	-25.76
50.32	-77.87	-16.39
50.51	-77.43	-5.80
50.70	-76.93	5.84
50.89	-76.38	18.33
51.08	-75.81	31.49
51.28	-75.20	45.12
51.47	-74.58	59.02
51.66	-73.95	72.98
51.86	-73.33	86.80
52.05	-72.72	100.26
52.25	-72.13	113.14
52.45	-71.57	125.22
52.65	-71.06	136.27
52.85	-70.61	146.06
53.04	-70.21	154.52
53.24	-69.87	161.68
53.45	-69.57	167.60
53.65	-69.31	172.33
53.85	-69.09	175.93
54.05	-68.89	178.45
54.26	-68.72	179.95
54.46	-68.57	-179.51
54.67	-68.42	-179.88
54.87	-68.28	178.92
55.08	-68.14	176.93
55.29	-67.98	174.23
55.50	-67.81	170.88
55.71	-67.61	166.95
55.92	-67.39	162.50
56.13	-67.14	157.55
56.34	-66.87	152.12
56.55	-66.59	146.25
56.77	-66.30	139.94
56.98	-66.00	133.23
57.19	-65.71	126.15
57.41	-65.43	118.71
57.63	-65.16	110.95
57.84	-64.92	102.89
58.06	-64.70	94.57
58.28	-64.52	86.00
58.50	-64.38	77.22
58.72	-64.28	68.27
58.94	-64.23	59.23
59.17	-64.24	50.25
59.39	-64.31	41.48
59.61	-64.44	33.07
59.84	-64.63	25.17
60.06	-64.88	17.94
60.29	-65.21	11.55
60.52	-65.60	6.16
60.75	-66.07	1.93
60.98	-66.62	-0.95
61.21	-67.25	-2.32
61.44	-67.96	-1.99
61.67	-68.76	0.21
61.90	-69.64	4.19
62.14	-70.57	9.71
62.37	-71.52	16.52
62.61	-72.47	24.34
62.84	-73.40	32.91
63.08	-74.28	41.95
63.32	-75.08	51.17
63.56	-75.78	60.28
63.80	-76.34	69.00
64.04	-76.75	77.00
64.28	-76.96	83.99
64.52	-76.96	89.64
64.76	-76.73	93.80
65.01	-76.29	96.60
65.25	-75.68	98.20
65.50	-74.92	98.77
65.75	-74.06	98.49
66.00	-73.12	97.53
66.24	-72.13	96.07
66.49	-71.13	94.30
66.75	-70.16	92.41
67.00	-69.24	90.59
67.25	-68.43	89.04
67.50	-67.74	87.96
67.76	-67.19	87.38
68.01	-66.76	87.18
68.27	-66.42	87.19
68.53	-66.14	87.26
68.79	-65.90	87.24
69.05	-65.66	86.97
69.31	-65.39	86.29
69.57	-65.08	85.02
69.83	-64.68	83.00
70.09	-64.17	80.05
70.36	-63.52	75.99
70.62	-62.70	70.73
70.89	-61.77	64.39
71.16	-60.75	57.11
71.43	-59.68	49.06
71.70	-58.62	40.40
71.97	-57.60	31.29
72.24	-56.67	21.89
72.51	-55.88	12.37
72.79	-55.27	2.92
73.06	-54.89	-6.29
73.34	-54.78	-15.08
73.61	-54.97	-23.31
73.89	-55.41	-30.96
74.17	-56.06	-37.97
74.45	-56.89	-44.31
74.73	-57.83	-49.95
75.01	-58.86	-54.84
75.29	-59.92	-58.94
75.58	-60.97	-62.22
75.86	-61.95	-64.63
76.15	-62.82	-66.13
76.44	-63.53	-66.71
76.73	-64.10	-66.51
77.02	-64.54	-65.72
77.31	-64.88	-64.56
77.60	-65.15	-63.21
77.89	-65.37	-61.90
78.18	-65.56	-60.84
78.48	-65.76	-60.24
78.78	-65.98	-60.34
79.07	-66.26	-61.35
79.37	-66.63	-63.46
79.67	-67.07	-66.52
79.97	-67.58	-70.26
80.27	-68.15	-74.42
80.58	-68.78	-78.72
80.88	-69.45	-82.87
81.19	-70.14	-86.61
81.49	-70.87	-89.62
81.80	-71.60	-91.62
82.11	-72.33	-92.29
82.42	-73.05	-91.49
82.73	-73.73	-89.42
83.04	-74.35	-86.30
83.35	-74.87	-82.36
83.67	-75.28	-77.86
83.99	-75.54	-73.03
84.30	-75.64	-68.13
84.62	-75.53	-63.42
84.94	-75.19	-59.15
85.26	-74.61	-55.57
85.58	-73.82	-52.66
85.90	-72.89	-50.36
86.23	-71.87	-48.59
86.55	-70.83	-47.28
86.88	-69.85	-46.35
87.21	-68.97	-45.73
87.54	-68.28	-45.34
87.87	-67.84	-45.10
88.20	-67.70	-44.95
88.53	-67.83	-45.01
88.87	-68.15	-45.42
89.20	-68.62	-46.36
89.54	-69.14	-47.98
89.88	-69.67	-50.45
90.22	-70.11	-53.95
90.56	-70.40	-58.65
90.90	-70.46	-64.72
91.24	-70.27	-72.19
91.59	-69.88	-80.72
91.93	-69.39	-89.93
92.28	-68.87	-99.41
92.63	-68.41	-108.77
92.98	-68.09	-117.59
93.33	-68.02	-125.46
93.68	-68.26	-131.94
94.03	-68.91	-136.65
94.39	-69.93	-139.60
94.74	-71.23	-141.03
95.10	-72.71	-141.14
95.46	-74.29	-140.18
95.82	-75.87	-138.36
96.18	-77.34	-135.93
96.54	-78.62	-133.13
96.91	-79.60	-130.21
97.27	-80.27	-127.38
97.64	-80.69	-124.82
98.01	-80.90	-122.73
98.38	-80.96	-121.29
98.75	-80.93	-120.71
99.12	-80.87	-121.19
99.50	-80.83	-122.93
99.87	-80.87	-126.12
100.25	-80.98	-130.53
100.63	-81.12	-135.71
101.01	-81.25	-141.22
101.39	-81.33	-146.56
101.77	-81.31	-151.27
102.16	-81.13	-154.85
102.54	-80.77	-156.78
102.93	-80.18	-156.71
103.32	-79.43	-154.82
103.71	-78.57	-151.44
104.10	-77.68	-146.93
104.49	-76.84	-141.63
104.88	-76.13	-135.91
105.28	-75.62	-130.13
105.68	-75.38	-124.67
106.08	-75.43	-119.79
106.48	-75.72	-115.65
106.88	-76.21	-112.40
107.28	-76.83	-110.20
107.69	-77.53	-109.22
108.09	-78.26	-109.61
108.50	-78.96	-111.56
108.91	-79.58	-114.99
109.32	-80.08	-119.42
109.73	-80.42	-124.28
110.15	-80.57	-128.99
110.56	-80.49	-132.96
110.98	-80.13	-135.59
111.40	-79.46	-136.26
111.82	-78.47	-134.67
112.24	-77.22	-131.25
112.67	-75.80	-126.60
113.09	-74.28	-121.31
113.52	-72.75	-115.98
113.95	-71.30	-111.23
114.38	-70.01	-107.69
114.81	-68.95	-105.91
115.24	-68.17	-106.26
115.68	-67.69	-109.08
116.11	-67.55	-114.75
116.55	-67.79	-123.62
116.99	-68.44	-136.08
117.43	-69.53	-152.46
117.87	-71.01	-172.08
118.32	-72.73	166.65
118.77	-74.53	145.39
119.21	-76.26	125.82
119.66	-77.77	109.68
120.12	-78.87	98.74
120.57	-79.47	94.33
121.02	-79.64	95.91
121.48	-79.51	102.42
121.94	-79.22	112.81
122.40	-78.90	125.95
122.86	-78.69	140.73
123.32	-78.74	156.03
123.79	-79.05	170.97
124.26	-79.52	-175.07
124.73	-80.05	-162.75
125.20	-80.53	-152.73
125.67	-80.87	-145.68
126.14	-80.95	-142.29
126.62	-80.74	-142.65
127.10	-80.31	-145.96
127.58	-79.73	-151.30
128.06	-79.10	-157.78
128.54	-78.50	-164.44
129.03	-78.01	-170.34
129.51	-77.69	-174.93
130.00	-77.55	-178.56
130.49	-77.57	178.30
130.98	-77.75	175.20
131.48	-78.09	171.66
131.98	-78.57	167.19
132.47	-79.16	161.67
132.97	-79.82	155.59
133.48	-80.46	149.54
133.98	-81.01	144.12
134.48	-81.42	139.95
134.99	-81.60	137.61
135.50	-81.54	136.95
136.01	-81.32	136.89
136.53	-80.98	136.27
137.04	-80.61	133.93
137.56	-80.28	128.65
138.08	-80.04	119.36
138.60	-79.91	106.31
139.12	-79.85	90.48
139.65	-79.85	72.91
140.17	-79.86	54.63
140.70	-79.87	36.71
141.23	-79.85	20.09
141.77	-79.83	5.30
142.30	-79.84	-7.21
142.84	-79.91	-16.94
143.38	-80.09	-23.41
143.92	-80.38	-26.23
144.46	-80.79	-26.28
145.01	-81.25	-25.27
145.55	-81.72	-24.99
146.10	-82.15	-27.25
146.65	-82.47	-33.87
147.21	-82.67	-44.97
147.76	-82.80	-57.75
148.32	-82.89	-69.06
148.88	-83.01	-75.67
149.44	-83.19	-74.28
150.01	-83.46	-63.01
150.57	-83.73	-45.05
151.14	-83.85	-24.78
151.71	-83.71	-6.68
152.28	-83.17	4.65
152.86	-82.14	5.49
153.43	-80.76	-2.78
154.01	-79.28	-16.90
154.59	-77.92	-33.57
155.18	-76.92	-49.39
155.76	-76.50	-61.35
156.35	-76.56	-69.44
156.94	-76.90	-74.87
157.53	-77.30	-78.88
158.13	-77.55	-82.76
158.72	-77.46	-87.61
159.32	-77.09	-93.38
159.93	-76.55	-99.58
160.53	-75.97	-105.72
161.13	-75.51	-111.30
161.74	-75.26	-115.88
162.35	-75.24	-119.31
162.97	-75.44	-121.53
163.58	-75.85	-122.47
164.20	-76.45	-122.07
164.82	-77.17	-120.47
165.44	-77.84	-118.32
166.06	-78.27	-116.30
166.69	-78.25	-115.15
167.32	-77.59	-115.58
167.95	-76.36	-117.78
168.58	-74.90	-121.48
169.22	-73.55	-126.35
169.86	-72.66	-132.07
170.50	-72.52	-138.35
171.14	-72.84	-145.12
171.79	-73.20	-152.39
172.44	-73.13	-160.19
173.09	-72.19	-168.51
173.74	-70.44	-177.30
174.40	-68.74	173.66
175.06	-68.05	164.54
175.72	-69.32	155.57
176.38	-73.23	147.07
177.04	-78.83	140.05
177.71	-84.57	135.76
178.38	-88.87	135.48
179.06	-90.20	140.43
179.73	-88.45	149.91
180.41	-84.92	161.38
181.09	-81.02	172.10
181.77	-78.19	179.33
182.46	-77.27	-178.50
183.15	-77.69	179.88
183.84	-78.65	176.15
184.53	-79.37	172.07
185.23	-79.18	169.10
185.93	-78.18	167.43
186.63	-76.67	166.82
187.33	-74.98	167.05
188.04	-73.42	167.70
188.75	-72.13	166.89
189.46	-71.20	161.97
190.18	-70.69	150.22
190.90	-70.67	129.30
191.62	-71.23	102.18
192.34	-72.46	75.56
193.07	-74.45	56.36
193.79	-77.27	51.17
194.53	-80.51	59.47
195.26	-83.42	75.02
196.00	-85.20	91.27
196.74	-85.12	101.79
197.48	-83.58	103.67
198.22	-81.87	96.76
198.97	-81.31	80.98
199.72	-83.13	56.48
200.48	-86.96	26.01
201.23	-91.38	-5.93
201.99	-94.93	-34.69
202.75	-96.29	-56.11
203.52	-95.67	-70.29
204.29	-93.95	-79.34
205.06	-92.06	-85.40
205.83	-90.79	-90.24
206.61	-90.32	-93.71
207.39	-90.65	-95.14
208.17	-91.79	-93.82
208.96	-93.48	-90.64
209.74	-94.89	-89.95
210.54	-95.08	-96.68
211.33	-93.14	-115.57
212.13	-89.19	-145.04
212.93	-84.42	-176.86
213.73	-80.07	157.68
214.54	-77.31	145.81
215.35	-76.40	143.54
216.16	-77.23	142.14
216.98	-79.68	132.69
217.80	-83.34	109.40
218.62	-87.16	73.51
219.44	-89.97	27.18
220.27	-90.69	-27.04
221.10	-89.45	-82.42
221.94	-87.20	-129.31
222.77	-84.94	-157.82
223.61	-83.30	-164.03
224.46	-81.96	-160.48
225.30	-80.41	-162.74
226.15	-78.25	174.94
227.01	-76.22	137.24
227.86	-75.85	101.33
228.72	-78.68	84.92
229.59	-84.95	95.23
230.45	-92.13	117.95
231.32	-97.33	135.88
232.20	-98.10	134.82
233.07	-95.23	120.86
233.95	-90.76	108.11
234.84	-86.72	110.38
235.72	-84.02	128.65
236.61	-82.50	151.38
237.50	-81.96	166.34
238.40	-82.10	166.97
239.30	-82.43	159.11
240.20	-82.47	150.35
241.11	-81.80	146.71
242.02	-80.53	146.77
242.93	-78.89	146.93
243.85	-77.16	143.91
244.77	-75.63	137.78
245.69	-74.64	130.41
246.62	-74.51	123.60
247.55	-75.12	116.98
248.48	-75.94	108.35
249.42	-76.46	95.47
250.36	-76.55	79.53
251.31	-76.56	65.93
252.26	-76.88	60.39
253.21	-77.71	64.04
254.16	-78.83	70.36
255.12	-80.04	72.04
256.09	-81.18	66.26
257.05	-82.22	59.22
258.02	-83.15	58.32
259.00	-83.91	66.98
259.97	-84.27	79.90
260.95	-84.02	90.54
261.94	-83.18	95.24
262.93	-82.39	96.80
263.92	-82.34	98.90
264.92	-83.31	103.38
265.92	-84.75	108.33
266.92	-85.98	111.35
267.93	-86.39	111.73
268.94	-85.52	111.46
269.95	-82.95	112.77
270.97	-79.10	114.52
271.99	-75.56	111.28
273.02	-73.95	97.66
274.05	-74.45	76.90
275.08	-75.94	60.16
276.12	-77.29	57.77
277.16	-78.00	66.55
278.21	-77.89	75.14
279.26	-76.92	74.04
280.31	-75.51	65.84
281.37	-74.27	57.39
282.43	-73.67	53.32
283.50	-73.70	51.53
284.57	-74.27	48.67
285.64	-75.19	43.45
286.72	-76.11	37.57
287.80	-76.68	32.73
288.89	-76.97	27.15
289.98	-77.30	16.53
291.07	-78.02	-1.32
292.17	-79.45	-17.94
293.27	-81.91	-21.62
294.38	-85.17	-8.54
295.49	-87.99	10.28
296.61	-89.06	22.78
297.73	-88.04	26.53
298.85	-85.24	26.03
299.98	-81.49	25.26
301.11	-79.49	25.15
302.25	-82.32	25.97
303.39	-89.07	29.21
304.53	-93.91	37.89
305.68	-91.89	54.08
306.83	-86.04	73.18
307.99	-82.44	87.99
309.15	-83.46	95.43
310.32	-85.37	99.19
311.49	-84.36	102.76
312.67	-80.87	103.15
313.85	-77.24	94.42
315.03	-74.91	75.56
316.22	-73.74	53.80
317.41	-73.47	36.26
318.61	-73.85	23.33
319.81	-74.66	12.70
321.02	-75.73	3.59
322.23	-76.90	-2.74
323.45	-78.02	-5.65
324.67	-78.92	-8.17
325.89	-79.44	-13.98
327.12	-80.04	-20.39
328.36	-81.74	-19.17
329.60	-84.71	-6.75
330.84	-87.04	8.88
332.09	-86.91	19.02
333.34	-85.05	22.12
334.60	-83.27	19.75
335.86	-82.32	13.77
337.13	-81.86	6.43
338.40	-81.59	1.31
339.68	-81.53	5.08
340.96	-81.70	22.29
342.25	-81.88	40.96
343.54	-81.80	43.97
344.83	-81.46	32.66
346.14	-81.12	23.20
347.44	-80.80	22.12
348.75	-80.20	19.83
350.07	-79.18	10.65
351.39	-78.22	5.72
352.72	-77.76	15.57
354.05	-77.22	26.57
355.38	-75.81	17.71
356.72	-74.21	-9.22
358.07	-74.06	-37.52
359.42	-75.55	-55.74
360.78	-77.23	-58.44
362.14	-78.33	-47.66
363.51	-79.29	-37.46
364.88	-80.41	-36.10
366.25	-81.17	-34.20
367.64	-81.04	-24.12
369.02	-79.88	-15.30
370.42	-77.84	-18.71
371.81	-76.06	-31.88
373.22	-75.83	-47.58
374.63	-76.96	-56.17
376.04	-78.53	-48.82
377.46	-79.40	-34.60
378.88	-78.41	-31.20
380.31	-76.38	-40.61
381.75	-75.29	-54.67
383.19	-75.47	-68.54
384.63	-76.01	-79.95
386.09	-76.80	-86.59
387.54	-78.39	-86.35
389.00	-80.07	-82.33
390.47	-80.21	-81.87
391.95	-79.16	-87.55
393.43	-79.03	-97.28
394.91	-80.35	-102.58
396.40	-82.31	-91.02
397.90	-83.49	-70.78
399.40	-82.30	-64.87
400.90	-80.06	-74.39
402.42	-79.79	-85.22
403.94	-80.37	-89.51
405.46	-78.69	-85.39
406.99	-77.02	-87.38
408.53	-79.30	-111.52
